# Distance                   Potential                   Force
1.900095000000000312e+02 5.610346158246808773e+04 1.838449651230944786e+06
1.900300825000000202e+02 3.861480499531167879e+04 4.351004643299443997e+05
1.900506650000000093e+02 3.221853086700520726e+04 2.266975770391469414e+05
1.900712474999999984e+02 2.846568779989343238e+04 1.479799712859725114e+05
1.900918299999999874e+02 2.587365538126642059e+04 1.077095230398291897e+05
1.901124124999999765e+02 2.392347775235959125e+04 8.361331131395723787e+04
1.901329949999999656e+02 2.237622935215460166e+04 6.773276646723497834e+04
1.901535774999999546e+02 2.110334997691134413e+04 5.655541529983279179e+04
1.901741599999999437e+02 2.002822005714594343e+04 4.830378160150993062e+04
1.901947424999999328e+02 1.910173485595020611e+04 4.198716309846155491e+04
1.902153249999999218e+02 1.829066197238866880e+04 3.701208311127814522e+04
1.902359074999999109e+02 1.757153607760024897e+04 3.300253452830346214e+04
1.902564899999999000e+02 1.692721494898902893e+04 2.970936680605285437e+04
1.902770724999998890e+02 1.634482119083493126e+04 2.696131071416677150e+04
1.902976549999998781e+02 1.581445296618482098e+04 2.463696846623237434e+04
1.903182374999998672e+02 1.532834433415343301e+04 2.264802653849673152e+04
1.903388199999998562e+02 1.488030012169309884e+04 2.092878974046430085e+04
1.903594024999998453e+02 1.446530471462908281e+04 1.942943248212669278e+04
1.903799849999998344e+02 1.407924456587584064e+04 1.811151819399936721e+04
1.904005674999998234e+02 1.371870712724553050e+04 1.694494780747193727e+04
1.904211499999998125e+02 1.338083239332199446e+04 1.590583427203984138e+04
1.904417324999998016e+02 1.306320144443437493e+04 1.497499223276757584e+04
1.904623149999997906e+02 1.276375150736105206e+04 1.413684548937747422e+04
1.904828974999997797e+02 1.248071034774618056e+04 1.337862386720388531e+04
1.905034799999997688e+02 1.221254497347713368e+04 1.268976418793333687e+04
1.905240624999997578e+02 1.195792108067033041e+04 1.206145752589133917e+04
1.905446449999997469e+02 1.171567066651447749e+04 1.148630286996605355e+04
1.905652274999997360e+02 1.148476592321134012e+04 1.095803923411091637e+04
1.905858099999997251e+02 1.126429801439503717e+04 1.047133632545512774e+04
1.906063924999997141e+02 1.105345968426966829e+04 1.002162942407660375e+04
1.906269749999997032e+02 1.085153090283235179e+04 9.604987997043621363e+03
1.906475574999996923e+02 1.065786693645213563e+04 9.218010305279223758e+03
1.906681399999996813e+02 1.047188837114904527e+04 8.857738221309215078e+03
1.906887224999996704e+02 1.029307271954171119e+04 8.521587895917238711e+03
1.907093049999996595e+02 1.012094732096219741e+04 8.207292952009976943e+03
1.907298874999996485e+02 9.955083304291512832e+03 7.912857653928453146e+03
1.907504699999996376e+02 9.795090429387902986e+03 7.636518075751615470e+03
1.907710524999996267e+02 9.640612658989868578e+03 7.376709725890131267e+03
1.907916349999996157e+02 9.491324341182211356e+03 7.132040415057823338e+03
1.908122174999996048e+02 9.346926904763578932e+03 6.901267407449235179e+03
1.908327999999995939e+02 9.207145987523123040e+03 6.683278090099663132e+03
1.908533824999995829e+02 9.071728931554000155e+03 6.477073547151671846e+03
1.908739649999995720e+02 8.940442591082199215e+03 6.281754544543769953e+03
1.908945474999995611e+02 8.813071407466397432e+03 6.096509524221679385e+03
1.909151299999995501e+02 8.689415713483360378e+03 5.920604281144509514e+03
1.909357124999995392e+02 8.569290235107109766e+03 5.753373055481389201e+03
1.909562949999995283e+02 8.452522763992868931e+03 5.594210819779519625e+03
1.909768774999995173e+02 8.338952978002271266e+03 5.442566579060042386e+03
1.909974599999995064e+02 8.228431390524458038e+03 5.297937532706328057e+03
1.910180424999994955e+02 8.120818412190550589e+03 5.159863972152418683e+03
1.910386249999994845e+02 8.015983510953974474e+03 5.027924808925388788e+03
1.910592074999994736e+02 7.913804458500199871e+03 4.901733644457482114e+03
1.910797899999994627e+02 7.814166652625081952e+03 4.780935306980401947e+03
1.911003724999994517e+02 7.716962506636446960e+03 4.665202792311858502e+03
1.911209549999994408e+02 7.622090898032661244e+03 4.554234554894098437e+03
1.911415374999994299e+02 7.529456669731647708e+03 4.447752103404786794e+03
1.911621199999994190e+02 7.438970177993621292e+03 4.345497861919923707e+03
1.911827024999994080e+02 7.350546881924539775e+03 4.247233263198386339e+03
1.912032849999993971e+02 7.264106970085631474e+03 4.152737045364884580e+03
1.912238674999993862e+02 7.179575020283542472e+03 4.061803727244787297e+03
1.912444499999993752e+02 7.096879689089276326e+03 3.974242240973782373e+03
1.912650324999993643e+02 7.015953428043860185e+03 3.889874703368785958e+03
1.912856149999993534e+02 6.936732223864017215e+03 3.808535309986807079e+03
1.913061974999993424e+02 6.859155360269795892e+03 3.730069337883807293e+03
1.913267799999993315e+02 6.783165199325319008e+03 3.654332244872223328e+03
1.913473624999993206e+02 6.708706980418617604e+03 3.581188854610568796e+03
1.913679449999993096e+02 6.635728635212237350e+03 3.510512618180031041e+03
1.913885274999992987e+02 6.564180617076533963e+03 3.442184943943630515e+03
1.914091099999992878e+02 6.494015743676102829e+03 3.376094588470378767e+03
1.914296924999992768e+02 6.425189051519317218e+03 3.312137102162480460e+03
1.914502749999992659e+02 6.357657661404021383e+03 3.250214323967220480e+03
1.914708574999992550e+02 6.291380653801364133e+03 3.190233920202590070e+03
1.914914399999992440e+02 6.226318953315931140e+03 3.132108963090708130e+03
1.915120224999992331e+02 6.162435221446067771e+03 3.075757545087009930e+03
1.915326049999992222e+02 6.099693756944036068e+03 3.021102425525886702e+03
1.915531874999992112e+02 6.038060403143399526e+03 2.968070706483183130e+03
1.915737699999992003e+02 5.977502461681284331e+03 2.916593535089863053e+03
1.915943524999991894e+02 5.917988612096955876e+03 2.866605829825207820e+03
1.916149349999991784e+02 5.859488836836401788e+03 2.818046028577375637e+03
1.916355174999991675e+02 5.801974351235599897e+03 2.770855856488482004e+03
1.916560999999991566e+02 5.745417538093934127e+03 2.724980111804301941e+03
1.916766824999991456e+02 5.689791886483969392e+03 2.680366468128732777e+03
1.916972649999991347e+02 5.635071934474924092e+03 2.636965291642901320e+03
1.917178474999991238e+02 5.581233215475508587e+03 2.594729471991004175e+03
1.917384299999991129e+02 5.528252207927032941e+03 2.553614265661483387e+03
1.917590124999991019e+02 5.476106288100707388e+03 2.513577150805131623e+03
1.917795949999990910e+02 5.424773685773743637e+03 2.474577692532479887e+03
1.918001774999990801e+02 5.374233442577624373e+03 2.436577417823100859e+03
1.918207599999990691e+02 5.324465372828958607e+03 2.399539699260167254e+03
1.918413424999990582e+02 5.275450026668721875e+03 2.363429646876100833e+03
1.918619249999990473e+02 5.227168655349738401e+03 2.328214007460149332e+03
1.918825074999990363e+02 5.179603178524977011e+03 2.293861070737223599e+03
1.919030899999990254e+02 5.132736153400859621e+03 2.260340581879951515e+03
1.919236724999990145e+02 5.086550745630379424e+03 2.227623659863331341e+03
1.919442549999990035e+02 5.041030701830401085e+03 2.195682721214168851e+03
1.919648374999989926e+02 4.996160323616440110e+03 2.164491408746116122e+03
1.919854199999989817e+02 4.951924443056161181e+03 2.134024524906097668e+03
1.920060024999989707e+02 4.908308399450294019e+03 2.104257969389534537e+03
1.920265849999989598e+02 4.865298017356349192e+03 2.075168680710446097e+03
1.920471674999989489e+02 4.822879585776785461e+03 2.046734581438509622e+03
1.920677499999989379e+02 4.781039838438855440e+03 2.018934526838794000e+03
1.920883324999989270e+02 4.739765935098672344e+03 1.991748256671317222e+03
1.921089149999989161e+02 4.699045443806769072e+03 1.965156349927124893e+03
1.921294974999989051e+02 4.658866324076859200e+03 1.939140182295366913e+03
1.921500799999988942e+02 4.619216910903572170e+03 1.913681886172063514e+03
1.921706624999988833e+02 4.580085899578630233e+03 1.888764313036034309e+03
1.921912449999988723e+02 4.541462331258493577e+03 1.864370998030988176e+03
1.922118274999988614e+02 4.503335579239551407e+03 1.840486126605100708e+03
1.922324099999988505e+02 4.465695335899964448e+03 1.817094503070710971e+03
1.922529924999988395e+02 4.428531600269981936e+03 1.794181520957113662e+03
1.922735749999988286e+02 4.391834666195015416e+03 1.771733135038887440e+03
1.922941574999988177e+02 4.355595111058154544e+03 1.749735834930901319e+03
1.923147399999988068e+02 4.319803785030901054e+03 1.728176620149115024e+03
1.923353224999987958e+02 4.284451800822937003e+03 1.707042976543613577e+03
1.923559049999987849e+02 4.249530523903593348e+03 1.686322854017060536e+03
1.923764874999987740e+02 4.215031563169401124e+03 1.666004645447935445e+03
1.923970699999987630e+02 4.180946762033679988e+03 1.646077166743646330e+03
1.924176524999987521e+02 4.147268189915701441e+03 1.626529637953847214e+03
1.924382349999987412e+02 4.113988134108179111e+03 1.607351665379145970e+03
1.924588174999987302e+02 4.081099092003334590e+03 1.588533224614861865e+03
1.924793999999987193e+02 4.048593763658790522e+03 1.570064644473602129e+03
1.924999824999987084e+02 4.016465044685822704e+03 1.551936591734276590e+03
1.925205649999986974e+02 3.984706019443395689e+03 1.534140056668655006e+03
1.925411474999986865e+02 3.953309954522509997e+03 1.516666339299861875e+03
1.925617299999986756e+02 3.922270292506224450e+03 1.499507036350219323e+03
1.925823124999986646e+02 3.891580645991542042e+03 1.482654028838637942e+03
1.926028949999986537e+02 3.861234791860257701e+03 1.466099470290356749e+03
1.926234774999986428e+02 3.831226665786441117e+03 1.449835775524234350e+03
1.926440599999986318e+02 3.801550356969044969e+03 1.433855609985032743e+03
1.926646424999986209e+02 3.772200103078758730e+03 1.418151879590198860e+03
1.926852249999986100e+02 3.743170285408760719e+03 1.402717721062579358e+03
1.927058074999985990e+02 3.714455424219712768e+03 1.387546492722301764e+03
1.927263899999985881e+02 3.686050174269745185e+03 1.372631765712705828e+03
1.927469724999985772e+02 3.657949320520776382e+03 1.357967315636777812e+03
1.927675549999985662e+02 3.630147774012948503e+03 1.343547114581967435e+03
1.927881374999985553e+02 3.602640567899390135e+03 1.329365323512620307e+03
1.928087199999985444e+02 3.575422853633947398e+03 1.315416285010523779e+03
1.928293024999985334e+02 3.548489897304917122e+03 1.301694516345205557e+03
1.928498849999985225e+02 3.521837076108133260e+03 1.288194702856749473e+03
1.928704674999985116e+02 3.495459874953233793e+03 1.274911691634893032e+03
1.928910499999985007e+02 3.469353883197037248e+03 1.261840485479117433e+03
1.929116324999984897e+02 3.443514791498545492e+03 1.248976237125361422e+03
1.929322149999984788e+02 3.417938388790082627e+03 1.236314243725782262e+03
1.929527974999984679e+02 3.392620559359593244e+03 1.223849941568800659e+03
1.929733799999984569e+02 3.367557280039248781e+03 1.211578901027376560e+03
1.929939624999984460e+02 3.342744617495758575e+03 1.199496821724148276e+03
1.930145449999984351e+02 3.318178725618085991e+03 1.187599527902712225e+03
1.930351274999984241e+02 3.293855842998364096e+03 1.175882963994919010e+03
1.930557099999984132e+02 3.269772290502145097e+03 1.164343190374613869e+03
1.930762924999984023e+02 3.245924468924187750e+03 1.152976379288794988e+03
1.930968749999983913e+02 3.222308856726249360e+03 1.141778810957639053e+03
1.931174574999983804e+02 3.198922007853477226e+03 1.130746869835325469e+03
1.931380399999983695e+02 3.175760549626182637e+03 1.119877041024013351e+03
1.931586224999983585e+02 3.152821180703876053e+03 1.109165906833744430e+03
1.931792049999983476e+02 3.130100669118718088e+03 1.098610143481428167e+03
1.931997874999983367e+02 3.107595850375495957e+03 1.088206517922426201e+03
1.932203699999983257e+02 3.085303625615516921e+03 1.077951884808600198e+03
1.932409524999983148e+02 3.063220959841862623e+03 1.067843183567002143e+03
1.932615349999983039e+02 3.041344880203580487e+03 1.057877435593693463e+03
1.932821174999982929e+02 3.019672474336487085e+03 1.048051741557459536e+03
1.933026999999982820e+02 2.998200888758366091e+03 1.038363278808465793e+03
1.933232824999982711e+02 2.976927327316507672e+03 1.028809298887136265e+03
1.933438649999982601e+02 2.955849049685471982e+03 1.019387125128796015e+03
1.933644474999982492e+02 2.934963369913251427e+03 1.010094150359824539e+03
1.933850299999982383e+02 2.914267655013919466e+03 1.000927834681296304e+03
1.934056124999982273e+02 2.893759323605029749e+03 9.918857033362727407e+02
1.934261949999982164e+02 2.873435844588113014e+03 9.829653446571081759e+02
1.934467774999982055e+02 2.853294735870577824e+03 9.741644080893076989e+02
1.934673599999981946e+02 2.833333563127585876e+03 9.654806022886417622e+02
1.934879424999981836e+02 2.813549938602307066e+03 9.569116932883929394e+02
1.935085249999981727e+02 2.793941519943249205e+03 9.484555027337453339e+02
1.935291074999981618e+02 2.774506009077234012e+03 9.401099061804867461e+02
1.935496899999981508e+02 2.755241151116767014e+03 9.318728314553196697e+02
1.935702724999981399e+02 2.736144733300521693e+03 9.237422570752041793e+02
1.935908549999981290e+02 2.717214583965810107e+03 9.157162107232896915e+02
1.936114374999981180e+02 2.698448571551818532e+03 9.077927677790901271e+02
1.936320199999981071e+02 2.679844603632584040e+03 8.999700499006825112e+02
1.936526024999980962e+02 2.661400625978622429e+03 8.922462236568006801e+02
1.936731849999980852e+02 2.643114621646223895e+03 8.846194992067994463e+02
1.936937674999980743e+02 2.624984610093436459e+03 8.770881290265593861e+02
1.937143499999980634e+02 2.607008646321819924e+03 8.696504066784837050e+02
1.937349324999980524e+02 2.589184820043072705e+03 8.623046656238303740e+02
1.937555149999980415e+02 2.571511254869692493e+03 8.550492780756966340e+02
1.937760974999980306e+02 2.553986107528825869e+03 8.478826538910508361e+02
1.937966799999980196e+02 2.536607567098553318e+03 8.408032395002776411e+02
1.938172624999980087e+02 2.519373854265808859e+03 8.338095168727725195e+02
1.938378449999979978e+02 2.502283220605259885e+03 8.269000025171832249e+02
1.938584274999979868e+02 2.485333947878399158e+03 8.200732465149594645e+02
1.938790099999979759e+02 2.468524347352200493e+03 8.133278315859330405e+02
1.938995924999979650e+02 2.451852759136690565e+03 8.066623721846960962e+02
1.939201749999979540e+02 2.435317551540814748e+03 8.000755136266182035e+02
1.939407574999979431e+02 2.418917120445993078e+03 7.935659312423663323e+02
1.939613399999979322e+02 2.402649888696803373e+03 7.871323295598674576e+02
1.939819224999979212e+02 2.386514305508199868e+03 7.807734415126770955e+02
1.940025049999979103e+02 2.370508845888803990e+03 7.744880276737759459e+02
1.940230874999978994e+02 2.354632010079676547e+03 7.682748755138455863e+02
1.940436699999978885e+02 2.338882323008132971e+03 7.621327986831302042e+02
1.940642524999978775e+02 2.323258333756094544e+03 7.560606363160081855e+02
1.940848349999978666e+02 2.307758615042527708e+03 7.500572523574505794e+02
1.941054174999978557e+02 2.292381762719537164e+03 7.441215349105730184e+02
1.941259999999978447e+02 2.277126395281660734e+03 7.382523956045110936e+02
1.941465824999978338e+02 2.261991153387994018e+03 7.324487689818976150e+02
1.941671649999978229e+02 2.246974699396700544e+03 7.267096119052333734e+02
1.941877474999978119e+02 2.232075716911573636e+03 7.210339029814808782e+02
1.942083299999978010e+02 2.217292910340252092e+03 7.154206420042372656e+02
1.942289124999977901e+02 2.202625004463736786e+03 7.098688494128623461e+02
1.942494949999977791e+02 2.188070744016873505e+03 7.043775657679705091e+02
1.942700774999977682e+02 2.173628893279484146e+03 6.989458512427132746e+02
1.942906599999977573e+02 2.159298235677768844e+03 6.935727851293025878e+02
1.943112424999977463e+02 2.145077573395762101e+03 6.882574653602512171e+02
1.943318249999977354e+02 2.130965726996470494e+03 6.829990080438205950e+02
1.943524074999977245e+02 2.116961535052422732e+03 6.777965470131872507e+02
1.943729899999977135e+02 2.103063853785381525e+03 6.726492333888681969e+02
1.943935724999977026e+02 2.089271556714911640e+03 6.675562351539432484e+02
1.944141549999976917e+02 2.075583534315586803e+03 6.625167367416553361e+02
1.944347374999976807e+02 2.061998693682524390e+03 6.575299386349596489e+02
1.944553199999976698e+02 2.048515958205081915e+03 6.525950569776312022e+02
1.944759024999976589e+02 2.035134267248412471e+03 6.477113231965413433e+02
1.944964849999976479e+02 2.021852575842700162e+03 6.428779836347331411e+02
1.945170674999976370e+02 2.008669854379835670e+03 6.380942991949407315e+02
1.945376499999976261e+02 1.995585088317319332e+03 6.333595449932054180e+02
1.945582324999976152e+02 1.982597277889196675e+03 6.286730100222654301e+02
1.945788149999976042e+02 1.969705437823828561e+03 6.240339968243921476e+02
1.945993974999975933e+02 1.956908597068285644e+03 6.194418211733736825e+02
1.946199799999975824e+02 1.944205798519226391e+03 6.148958117653462523e+02
1.946405624999975714e+02 1.931596098760007862e+03 6.103953099181918560e+02
1.946611449999975605e+02 1.919078567803938995e+03 6.059396692792251997e+02
1.946817274999975496e+02 1.906652288843439237e+03 6.015282555409083898e+02
1.947023099999975386e+02 1.894316358004980884e+03 5.971604461643383956e+02
1.947228924999975277e+02 1.882069884109648456e+03 5.928356301102591033e+02
1.947434749999975168e+02 1.869911988439135257e+03 5.885532075773652423e+02
1.947640574999975058e+02 1.857841804507091638e+03 5.843125897476691080e+02
1.947846399999974949e+02 1.845858477835610302e+03 5.801131985387055465e+02
1.948052224999974840e+02 1.833961165736758630e+03 5.759544663623706811e+02
1.948258049999974730e+02 1.822149037099001816e+03 5.718358358901809879e+02
1.948463874999974621e+02 1.810421272178403115e+03 5.677567598247632077e+02
1.948669699999974512e+02 1.798777062394447739e+03 5.637167006773770481e+02
1.948875524999974402e+02 1.787215610130416053e+03 5.597151305512915087e+02
1.949081349999974293e+02 1.775736128538105504e+03 5.557515309308341784e+02
1.949287174999974184e+02 1.764337841346899950e+03 5.518253924759441134e+02
1.949492999999974074e+02 1.753019982676958534e+03 5.479362148220599238e+02
1.949698824999973965e+02 1.741781796856505025e+03 5.440835063851857285e+02
1.949904649999973856e+02 1.730622538243064355e+03 5.402667841719768376e+02
1.950110474999973746e+02 1.719541471048542235e+03 5.364855735946985078e+02
1.950316299999973637e+02 1.708537869168110319e+03 5.327394082909144117e+02
1.950522124999973528e+02 1.697611016012688651e+03 5.290278299477596420e+02
1.950727949999973418e+02 1.686760204345066313e+03 5.253503881306704670e+02
1.950933774999973309e+02 1.675984736119461331e+03 5.217066401164345280e+02
1.951139599999973200e+02 1.665283922324471860e+03 5.180961507304399447e+02
1.951345424999973091e+02 1.654657082829364072e+03 5.145184921879972535e+02
1.951551249999972981e+02 1.644103546233558745e+03 5.109732439396206587e+02
1.951757074999972872e+02 1.633622649719274023e+03 5.074599925201505357e+02
1.951962899999972763e+02 1.623213738907240668e+03 5.039783314016095801e+02
1.952168724999972653e+02 1.612876167715382053e+03 5.005278608496847710e+02
1.952374549999972544e+02 1.602609298220447954e+03 4.971081877837316370e+02
1.952580374999972435e+02 1.592412500522466189e+03 4.937189256402025990e+02
1.952786199999972325e+02 1.582285152611986859e+03 4.903596942393993459e+02
1.952992024999972216e+02 1.572226640240033248e+03 4.870301196554606804e+02
1.953197849999972107e+02 1.562236356790682294e+03 4.837298340894889748e+02
1.953403674999971997e+02 1.552313703156245538e+03 4.804584757457333808e+02
1.953609499999971888e+02 1.542458087614952319e+03 4.772156887107406646e+02
1.953815324999971779e+02 1.532668925711097017e+03 4.740011228353936303e+02
1.954021149999971669e+02 1.522945640137593500e+03 4.708144336197570965e+02
1.954226974999971560e+02 1.513287660620845600e+03 4.676552821006516183e+02
1.954432799999971451e+02 1.503694423807936573e+03 4.645233347418865719e+02
