# Distance                   Potential                   Force
2.000100000000000193e+02 5.754826252113495866e+04 1.814903901300187688e+06
2.000307456000000172e+02 3.977883531508129818e+04 4.455719033830570406e+05
2.000514912000000152e+02 3.315260912827462744e+04 2.337393866505519836e+05
2.000722368000000131e+02 2.924691109813365620e+04 1.529941631520983647e+05
2.000929824000000110e+02 2.654385389018727074e+04 1.115132050739709521e+05
2.001137280000000089e+02 2.450798737634169083e+04 8.663239465551580361e+04
2.001344736000000069e+02 2.289179747510960806e+04 7.020873126034045708e+04
2.001552192000000048e+02 2.156176765901485851e+04 5.863618598844714870e+04
2.001759648000000027e+02 2.043818660580457799e+04 5.008572302599223622e+04
2.001967104000000006e+02 1.946990318069749628e+04 4.353618366012987099e+04
2.002174559999999985e+02 1.862226633437248165e+04 3.837505838327883976e+04
2.002382015999999965e+02 1.787079016576927461e+04 3.421388654217412841e+04
2.002589471999999944e+02 1.719757568975541290e+04 3.079505317691337041e+04
2.002796927999999923e+02 1.658917004959866608e+04 2.794134954272989489e+04
2.003004383999999902e+02 1.603522439998642039e+04 2.552709562604284292e+04
2.003211839999999881e+02 1.552761918810402676e+04 2.346081782481062692e+04
2.003419295999999861e+02 1.505987506609679258e+04 2.167444135976891994e+04
2.003626751999999840e+02 1.462674487858962129e+04 2.011631677258489435e+04
2.003834207999999819e+02 1.422392411734435882e+04 1.874658754285324540e+04
2.004041663999999798e+02 1.384784103348470126e+04 1.753403364118497848e+04
2.004249119999999778e+02 1.349550161348860820e+04 1.645387201043423556e+04
2.004456575999999757e+02 1.316437315360914181e+04 1.548619303209527061e+04
2.004664031999999736e+02 1.285229550843571997e+04 1.461482910206139786e+04
2.004871487999999715e+02 1.255741252086213171e+04 1.382652265862174318e+04
2.005078943999999694e+02 1.227811839649050671e+04 1.311030546432838855e+04
2.005286399999999674e+02 1.201301529920969188e+04 1.245702934880635439e+04
2.005493855999999653e+02 1.176087947956443350e+04 1.185900715344785385e+04
2.005701311999999632e+02 1.152063396715065392e+04 1.130973494496535386e+04
2.005908767999999611e+02 1.129132636648361768e+04 1.080367490647743580e+04
2.006116223999999590e+02 1.107211065983674234e+04 1.033608405109886735e+04
2.006323679999999570e+02 1.086223218476651891e+04 9.902877906159998020e+03
2.006531135999999549e+02 1.066101514813447648e+04 9.500521148081521460e+03
2.006738591999999528e+02 1.046785218262647686e+04 9.125939196664292467e+03
2.006946047999999507e+02 1.028219556000651755e+04 8.776446248021858992e+03
2.007153503999999486e+02 1.010354975738325811e+04 8.449686302896341658e+03
2.007360959999999466e+02 9.931465135518867100e+03 8.143584544749386623e+03
2.007568415999999445e+02 9.765532536616072321e+03 7.856307018154275283e+03
2.007775871999999424e+02 9.605378646658258731e+03 7.586227007547375251e+03
2.007983327999999403e+02 9.450661996864266257e+03 7.331896858241497284e+03
2.008190783999999383e+02 9.301069502082977124e+03 7.092024243624866358e+03
2.008398239999999362e+02 9.156313452429028985e+03 6.865452084812524845e+03
2.008605695999999341e+02 9.016128889227928084e+03 6.651141486381967297e+03
2.008813151999999320e+02 8.880271308211304131e+03 6.448157175030241888e+03
2.009020607999999299e+02 8.748514642502328570e+03 6.255655025063914763e+03
2.009228063999999279e+02 8.620649485734978953e+03 6.072871331580059632e+03
2.009435519999999258e+02 8.496481522026369930e+03 5.899113553538533779e+03
2.009642975999999237e+02 8.375830134755862673e+03 5.733752298094911566e+03
2.009850431999999216e+02 8.258527170422386916e+03 5.576214357180004299e+03
2.010057887999999195e+02 8.144415837428106897e+03 5.425976639390079981e+03
2.010265343999999175e+02 8.033349722612580081e+03 5.282560866349219395e+03
2.010472799999999154e+02 7.925191910847125655e+03 5.145528924032959367e+03
2.010680255999999133e+02 7.819814195083679806e+03 5.014478777047490439e+03
2.010887711999999112e+02 7.717096366006504468e+03 4.889040868286346267e+03
2.011095167999999092e+02 7.616925571917075104e+03 4.768874938324649520e+03
2.011302623999999071e+02 7.519195740737899541e+03 4.653667208827151626e+03
2.011510079999999050e+02 7.423807057089048612e+03 4.543127882513092118e+03
2.011717535999999029e+02 7.330665488301528057e+03 4.436988919136869299e+03
2.011924991999999008e+02 7.239682354011009011e+03 4.335002052749127870e+03
2.012132447999998988e+02 7.150773934643681059e+03 4.236937020392181694e+03
2.012339903999998967e+02 7.063861114681174513e+03 4.142579976514359259e+03
2.012547359999998946e+02 6.978869057087790679e+03 4.051732070888132057e+03
2.012754815999998925e+02 6.895726905712258485e+03 3.964208170791564953e+03
2.012962271999998904e+02 6.814367512848603837e+03 3.879835710747959183e+03
2.013169727999998884e+02 6.734727189464070761e+03 3.798453655285126388e+03
2.013377183999998863e+02 6.656745475883992185e+03 3.719911562032112215e+03
2.013584639999998842e+02 6.580364930969575653e+03 3.644068734065938770e+03
2.013792095999998821e+02 6.505530938040050387e+03 3.570793451794096200e+03
2.013999551999998801e+02 6.432191525979515063e+03 3.499962275843963653e+03
2.014207007999998780e+02 6.360297204134885760e+03 3.431459413455804679e+03
2.014414463999998759e+02 6.289800809757587558e+03 3.365176141765322882e+03
2.014621919999998738e+02 6.220657366870572332e+03 3.301010282134508088e+03
2.014829375999998717e+02 6.152823955556348665e+03 3.238865720362457978e+03
2.015036831999998697e+02 6.086259590762709195e+03 3.178651968195120844e+03
2.015244287999998676e+02 6.020925109812369556e+03 3.120283762066293093e+03
2.015451743999998655e+02 5.956783067882394789e+03 3.063680695452036616e+03
2.015659199999998634e+02 5.893797640790192418e+03 3.008766881615378225e+03
2.015866655999998613e+02 5.831934534485945733e+03 2.955470643865311104e+03
2.016074111999998593e+02 5.771160900707884139e+03 2.903724230759790771e+03
2.016281567999998572e+02 5.711445258307182485e+03 2.853463553952181883e+03
2.016489023999998551e+02 5.652757419794575071e+03 2.804627946619034901e+03
2.016696479999998530e+02 5.595068422701161580e+03 2.757159940618101700e+03
2.016903935999998509e+02 5.538350465382487528e+03 2.711005060712624072e+03
2.017111391999998489e+02 5.482576846927612678e+03 2.666111634364141992e+03
2.017318847999998468e+02 5.427721910864427628e+03 2.622430615743795897e+03
2.017526303999998447e+02 5.373760992379121490e+03 2.579915422743793442e+03
2.017733759999998426e+02 5.320670368791729743e+03 2.538521785888077829e+03
2.017941215999998406e+02 5.268427213051334547e+03 2.498207608146132770e+03
2.018148671999998385e+02 5.217009550034342283e+03 2.458932834747643483e+03
2.018356127999998364e+02 5.166396215446919996e+03 2.420659332179731337e+03
2.018563583999998343e+02 5.116566817148916925e+03 2.383350775623850041e+03
2.018771039999998322e+02 5.067501698731379292e+03 2.346972544157035372e+03
2.018978495999998302e+02 5.019181905192929662e+03 2.311491623103031998e+03
2.019185951999998281e+02 4.971589150572705876e+03 2.276876512973574791e+03
2.019393407999998260e+02 4.924705787408458491e+03 2.243097144489403490e+03
2.019600863999998239e+02 4.878514777898524699e+03 2.210124799215118401e+03
2.019808319999998218e+02 4.832999666655855435e+03 2.177932035382185859e+03
2.020015775999998198e+02 4.788144554950385100e+03 2.146492618510746524e+03
2.020223231999998177e+02 4.743934076344075947e+03 2.115781456473781873e+03
2.020430687999998156e+02 4.700353373629844100e+03 2.085774538677047076e+03
2.020638143999998135e+02 4.657388076992144306e+03 2.056448879055172711e+03
2.020845599999998115e+02 4.615024283312975058e+03 2.027782462608973674e+03
2.021053055999998094e+02 4.573248536552444421e+03 1.999754195231261292e+03
2.021260511999998073e+02 4.532047809138147386e+03 1.972343856588826611e+03
2.021467967999998052e+02 4.491409484302209421e+03 1.945532055846723324e+03
2.021675423999998031e+02 4.451321339309075483e+03 1.919300190037879702e+03
2.021882879999998011e+02 4.411771529521108278e+03 1.893630404896416394e+03
2.022090335999997990e+02 4.372748573252603819e+03 1.868505557987152088e+03
2.022297791999997969e+02 4.334241337366251173e+03 1.843909183976566965e+03
2.022505247999997948e+02 4.296239023569101846e+03 1.819825461902292091e+03
2.022712703999997927e+02 4.258731155367964675e+03 1.796239184308926269e+03
2.022920159999997907e+02 4.221707565646809599e+03 1.773135728127856055e+03
2.023127615999997886e+02 4.185158384831176591e+03 1.750501027187777709e+03
2.023335071999997865e+02 4.149074029606887052e+03 1.728321546250946312e+03
2.023542527999997844e+02 4.113445192162388594e+03 1.706584256477779718e+03
2.023749983999997824e+02 4.078262829926079121e+03 1.685276612229461534e+03
2.023957439999997803e+02 4.043518155771744205e+03 1.664386529124635899e+03
2.024164895999997782e+02 4.009202628666861074e+03 1.643902363272228285e+03
2.024372351999997761e+02 3.975307944740185576e+03 1.623812891607875827e+03
2.024579807999997740e+02 3.941826028746401789e+03 1.604107293266526312e+03
2.024787263999997720e+02 3.908749025907004125e+03 1.584775131928381825e+03
2.024994719999997699e+02 3.876069294107860060e+03 1.565806339079695590e+03
2.025202175999997678e+02 3.843779396434979390e+03 1.547191198133859416e+03
2.025409631999997657e+02 3.811872094031250072e+03 1.528920329361934364e+03
2.025617087999997636e+02 3.780340339257824780e+03 1.510984675585129480e+03
2.025824543999997616e+02 3.749177269144786351e+03 1.493375488584910499e+03
2.026031999999997595e+02 3.718376199116656608e+03 1.476084316189308765e+03
2.026239455999997574e+02 3.687930616979161186e+03 1.459102989996710448e+03
2.026446911999997553e+02 3.657834177154330973e+03 1.442423613700916803e+03
2.026654367999997532e+02 3.628080695151915279e+03 1.426038551983564048e+03
2.026861823999997512e+02 3.598664142265569808e+03 1.409940419942183553e+03
2.027069279999997491e+02 3.569578640483108757e+03 1.394122073024154815e+03
2.027276735999997470e+02 3.540818457600552847e+03 1.378576597438692716e+03
2.027484191999997449e+02 3.512378002530356298e+03 1.363297301020729492e+03
2.027691647999997429e+02 3.484251820794717787e+03 1.348277704522168960e+03
2.027899103999997408e+02 3.456434590195295641e+03 1.333511533307500486e+03
2.028106559999997387e+02 3.428921116651220473e+03 1.318992709432145602e+03
2.028314015999997366e+02 3.401706330197634543e+03 1.304715344083235550e+03
2.028521471999997345e+02 3.374785281137469610e+03 1.290673730363715777e+03
2.028728927999997325e+02 3.348153136339522007e+03 1.276862336401826951e+03
2.028936383999997304e+02 3.321805175676242015e+03 1.263275798769057019e+03
2.029143839999997283e+02 3.295736788594994323e+03 1.249908916190667242e+03
2.029351295999997262e+02 3.269943470816926947e+03 1.236756643533808528e+03
2.029558751999997241e+02 3.244420821157774299e+03 1.223814086059119290e+03
2.029766207999997221e+02 3.219164538465311125e+03 1.211076493922494365e+03
2.029973663999997200e+02 3.194170418668375532e+03 1.198539256914495127e+03
2.030181119999997179e+02 3.169434351932683512e+03 1.186197899425562355e+03
2.030388575999997158e+02 3.144952319918813828e+03 1.174048075625860520e+03
2.030596031999997138e+02 3.120720393138090913e+03 1.162085564849218144e+03
2.030803487999997117e+02 3.096734728402178462e+03 1.150306267171211402e+03
2.031010943999997096e+02 3.072991566362479261e+03 1.138706199171967000e+03
2.031218399999997075e+02 3.049487229135619145e+03 1.127281489874810632e+03
2.031425855999997054e+02 3.026218118011389834e+03 1.116028376852340216e+03
2.031633311999997034e+02 3.003180711239862831e+03 1.104943202491971988e+03
2.031840767999997013e+02 2.980371561894344723e+03 1.094022410413437228e+03
2.032048223999996992e+02 2.957787295807154351e+03 1.083262542031101020e+03
2.032255679999996971e+02 2.935424609575291470e+03 1.072660233254350260e+03
2.032463135999996950e+02 2.913280268633133801e+03 1.062212211319673770e+03
2.032670591999996930e+02 2.891351105389599979e+03 1.051915291748359323e+03
2.032878047999996909e+02 2.869634017427120853e+03 1.041766375424078660e+03
2.033085503999996888e+02 2.848125965760084455e+03 1.031762445784907186e+03
2.033292959999996867e+02 2.826823973150367237e+03 1.021900566124617740e+03
2.033500415999996846e+02 2.805725122477752848e+03 1.012177876998341844e+03
2.033707871999996826e+02 2.784826555163160720e+03 1.002591593727948521e+03
2.033915327999996805e+02 2.764125469642613552e+03 9.931390040027198438e+02
2.034122783999996784e+02 2.743619119890016918e+03 9.838174655711271726e+02
2.034330239999996763e+02 2.723304813986932459e+03 9.746244040197193499e+02
2.034537695999996743e+02 2.703179912737557061e+03 9.655573106353310777e+02
2.034745151999996722e+02 2.683241828327202256e+03 9.566137403470111167e+02
2.034952607999996701e+02 2.663488023022693142e+03 9.477913097442367416e+02
2.035160063999996680e+02 2.643916007913104750e+03 9.390876951681584615e+02
2.035367519999996659e+02 2.624523341689373410e+03 9.305006308727713531e+02
2.035574975999996639e+02 2.605307629461345186e+03 9.220279072530512394e+02
2.035782431999996618e+02 2.586266521610929885e+03 9.136673691372585608e+02
2.035989887999996597e+02 2.567397712680017321e+03 9.054169141407103325e+02
2.036197343999996576e+02 2.548698940291951658e+03 8.972744910784872445e+02
2.036404799999996555e+02 2.530167984105342839e+03 8.892380984346262949e+02
2.036612255999996535e+02 2.511802664799040940e+03 8.813057828854953186e+02
2.036819711999996514e+02 2.493600843087239809e+03 8.734756378751220609e+02
2.037027167999996493e+02 2.475560418763602684e+03 8.657458022403842506e+02
2.037234623999996472e+02 2.457679329773383870e+03 8.581144588840347751e+02
2.037442079999996452e+02 2.439955551312651551e+03 8.505798334936515630e+02
2.037649535999996431e+02 2.422387094953571705e+03 8.431401933046735166e+02
2.037856991999996410e+02 2.404972007794945966e+03 8.357938459057733098e+02
2.038064447999996389e+02 2.387708371637097571e+03 8.285391380848943754e+02
2.038271903999996368e+02 2.370594302180291834e+03 8.213744547143601267e+02
2.038479359999996348e+02 2.353627948245887183e+03 8.142982176735209805e+02
2.038686815999996327e+02 2.336807491019468216e+03 8.073088848074880843e+02
2.038894271999996306e+02 2.320131143315208647e+03 8.004049489205550572e+02
2.039101727999996285e+02 2.303597148860784273e+03 7.935849368029754487e+02
2.039309183999996264e+02 2.287203781602118397e+03 7.868474082898220558e+02
2.039516639999996244e+02 2.270949345027348045e+03 7.801909553507042574e+02
2.039724095999996223e+02 2.254832171509357067e+03 7.736142012091801234e+02
2.039931551999996202e+02 2.238850621666280858e+03 7.671157994907417788e+02
2.040139007999996181e+02 2.223003083739401518e+03 7.606944333983071829e+02
2.040346463999996161e+02 2.207287972987863213e+03 7.543488149141896884e+02
2.040553919999996140e+02 2.191703731099685228e+03 7.480776840275685799e+02
2.040761375999996119e+02 2.176248825618547471e+03 7.418798079865177897e+02
2.040968831999996098e+02 2.160921749385838211e+03 7.357539805736905691e+02
2.041176287999996077e+02 2.145721019997490203e+03 7.296990214047991685e+02
2.041383743999996057e+02 2.130645179275146802e+03 7.237137752490610865e+02
2.041591199999996036e+02 2.115692792751213346e+03 7.177971113708151734e+02
2.041798655999996015e+02 2.100862449167319028e+03 7.119479228915508884e+02
2.042006111999995994e+02 2.086152759985862303e+03 7.061651261716162935e+02
2.042213567999995973e+02 2.071562358914128254e+03 7.004476602109066334e+02
2.042421023999995953e+02 2.057089901440697304e+03 6.947944860678594523e+02
2.042628479999995932e+02 2.042734064383688519e+03 6.892045862961106195e+02
2.042835935999995911e+02 2.028493545450525517e+03 6.836769643981945137e+02
2.043043391999995890e+02 2.014367062808865967e+03 6.782106442956875298e+02
2.043250847999995869e+02 2.000353354668353631e+03 6.728046698152293175e+02
2.043458303999995849e+02 1.986451178872878018e+03 6.674581041898690046e+02
2.043665759999995828e+02 1.972659312503009460e+03 6.621700295752096963e+02
2.043873215999995807e+02 1.958976551488351333e+03 6.569395465798444320e+02
2.044080671999995786e+02 1.945401710229455603e+03 6.517657738095969080e+02
2.044288127999995766e+02 1.931933621229086839e+03 6.466478474250964155e+02
2.044495583999995745e+02 1.918571134732497512e+03 6.415849207122391817e+02
2.044703039999995724e+02 1.905313118376517878e+03 6.365761636650997843e+02
2.044910495999995703e+02 1.892158456847149409e+03 6.316207625808793864e+02
2.045117951999995682e+02 1.879106051545447599e+03 6.267179196664875462e+02
2.045325407999995662e+02 1.866154820261447639e+03 6.218668526563706109e+02
2.045532863999995641e+02 1.853303696855905400e+03 6.170667944412186898e+02
2.045740319999995620e+02 1.840551630949641094e+03 6.123169927071919574e+02
2.045947775999995599e+02 1.827897587620239847e+03 6.076167095853214732e+02
2.046155231999995578e+02 1.815340547105942505e+03 6.029652213107525540e+02
2.046362687999995558e+02 1.802879504516502948e+03 5.983618178915181716e+02
2.046570143999995537e+02 1.790513469550802256e+03 5.938058027865209851e+02
2.046777599999995516e+02 1.778241466221085375e+03 5.892964925924451336e+02
2.046985055999995495e+02 1.766062532583569464e+03 5.848332167392976544e+02
2.047192511999995475e+02 1.753975720475291382e+03 5.804153171943136158e+02
2.047399967999995454e+02 1.741980095257032417e+03 5.760421481739540468e+02
2.047607423999995433e+02 1.730074735562105843e+03 5.717130758637478039e+02
2.047814879999995412e+02 1.718258733050893625e+03 5.674274781457211247e+02
2.048022335999995391e+02 1.706531192170965141e+03 5.631847443331886325e+02
2.048229791999995371e+02 1.694891229922612183e+03 5.589842749126654553e+02
2.048437247999995350e+02 1.683337975629675157e+03 5.548254812926891191e+02
2.048644703999995329e+02 1.671870570715503845e+03 5.507077855593298636e+02
2.048852159999995308e+02 1.660488168483923346e+03 5.466306202381882713e+02
2.049059615999995287e+02 1.649189933905083535e+03 5.425934280626804593e+02
2.049267071999995267e+02 1.637975043406026316e+03 5.385956617484172284e+02
2.049474527999995246e+02 1.626842684665906518e+03 5.346367837734957220e+02
2.049681983999995225e+02 1.615792056415675461e+03 5.307162661645174921e+02
2.049889439999995204e+02 1.604822368242179891e+03 5.268335902881728998e+02
2.050096895999995184e+02 1.593932840396493930e+03 5.229882466482089285e+02
2.050304351999995163e+02 1.583122703606439245e+03 5.191797346876344363e+02
2.050511807999995142e+02 1.572391198893134515e+03 5.154075625959953868e+02
2.050719263999995121e+02 1.561737577391506875e+03 5.116712471215782330e+02
2.050926719999995100e+02 1.551161100174639841e+03 5.079703133883903092e+02
2.051134175999995080e+02 1.540661038081859033e+03 5.043042947177806354e+02
2.051341631999995059e+02 1.530236671550508618e+03 5.006727324545617535e+02
2.051549087999995038e+02 1.519887290451246827e+03 4.970751757975043574e+02
2.051756543999995017e+02 1.509612193926839382e+03 4.935111816340764790e+02
2.051963999999994996e+02 1.499410690234332833e+03 4.899803143793043887e+02
2.052171455999994976e+02 1.489282096590521178e+03 4.864821458186351038e+02
2.052378911999994955e+02 1.479225739020645051e+03 4.830162549546905097e+02
2.052586367999994934e+02 1.469240952210221394e+03 4.795822278577935549e+02
2.052793823999994913e+02 1.459327079359935851e+03 4.761796575201691439e+02
2.053001279999994892e+02 1.449483472043527399e+03 4.728081437137057037e+02
2.053208735999994872e+02 1.439709490068593141e+03 4.694672928511851069e+02
2.053416191999994851e+02 1.430004501340210709e+03 4.661567178508771576e+02
2.053623647999994830e+02 1.420367881727372151e+03 4.628760380044076328e+02
2.053831103999994809e+02 1.410799014932098544e+03 4.596248788478088159e+02
2.054038559999994789e+02 1.401297292361212612e+03 4.564028720356600957e+02
2.054246015999994768e+02 1.391862113000677482e+03 4.532096552182387654e+02
2.054453471999994747e+02 1.382492883292469514e+03 4.500448719215930282e+02
2.054660927999994726e+02 1.373189017013891771e+03 4.469081714304588218e+02
2.054868383999994705e+02 1.363949935159307415e+03 4.437992086739429851e+02
