# Distance                   Potential                   Force
2.100105000000000359e+02 5.998997627194303641e+04 1.792974416501914850e+06
2.100329603000000418e+02 4.126230344622384291e+04 4.289568675662184833e+05
2.100554206000000477e+02 3.437378082530580286e+04 2.239355495779829798e+05
2.100778809000000535e+02 3.032680922568382812e+04 1.462889887811657973e+05
2.101003412000000594e+02 2.753007317382786641e+04 1.065180108316176338e+05
2.101228015000000653e+02 2.542530556462242384e+04 8.270384806211669638e+04
2.101452618000000712e+02 2.375518071847106330e+04 6.700193361696448119e+04
2.101677221000000770e+02 2.238113657745534874e+04 5.594670736109166319e+04
2.101901824000000829e+02 2.122055109289448592e+04 4.778325684167433792e+04
2.102126427000000888e+02 2.022045305683366678e+04 4.153297723056020914e+04
2.102351030000000947e+02 1.934498323544655796e+04 3.660941958152584994e+04
2.102575633000001005e+02 1.856881582947972493e+04 3.264091956457148262e+04
2.102800236000001064e+02 1.787344611569518020e+04 2.938114527651417666e+04
2.103024839000001123e+02 1.724497108145403399e+04 2.666073149063401070e+04
2.103249442000001181e+02 1.667269890415364716e+04 2.435960997282415337e+04
2.103474045000001240e+02 1.614824315417997423e+04 2.239042197217329522e+04
2.103698648000001299e+02 1.566491304582494740e+04 2.068817454607464242e+04
2.103923251000001358e+02 1.521729127423716272e+04 1.920356942310450540e+04
2.104147854000001416e+02 1.480093452695468659e+04 1.789857322513401596e+04
2.104372457000001475e+02 1.441215645139556727e+04 1.674340011917158336e+04
2.104597060000001534e+02 1.404786739486777878e+04 1.571440987251692059e+04
2.104821663000001593e+02 1.370545407424420591e+04 1.479261408871039748e+04
2.105046266000001651e+02 1.338268786678763354e+04 1.396259553628588219e+04
2.105270869000001710e+02 1.307765396810164202e+04 1.321171367318038574e+04
2.105495472000001769e+02 1.278869599902202208e+04 1.252951202312960231e+04
2.105720075000001827e+02 1.251437221026058432e+04 1.190727023978167563e+04
2.105944678000001886e+02 1.225342050464618114e+04 1.133766142301143736e+04
2.106169281000001945e+02 1.200473024139148765e+04 1.081448703937592109e+04
2.106393884000002004e+02 1.176731931254363553e+04 1.033246977393257839e+04
2.106618487000002062e+02 1.154031535830123721e+04 9.887090123742616925e+03
2.106843090000002121e+02 1.132294026110169216e+04 9.474456369051988077e+03
2.107067693000002180e+02 1.111449725905753985e+04 9.091200263974027621e+03
2.107292296000002239e+02 1.091436016837495481e+04 8.734392726574398694e+03
2.107516899000002297e+02 1.072196431625951482e+04 8.401475212786650445e+03
2.107741502000002356e+02 1.053679887059932116e+04 8.090203487622780813e+03
2.107966105000002415e+02 1.035840031755752534e+04 7.798601268799102399e+03
2.108190708000002473e+02 1.018634688821916825e+04 7.524921787054409833e+03
2.108415311000002532e+02 1.002025377432106689e+04 7.267615736571920024e+03
2.108639914000002591e+02 9.859769003552475624e+03 7.025304415211069681e+03
2.108864517000002650e+02 9.704569868941911409e+03 6.796757104329466529e+03
2.109089120000002708e+02 9.554359825927520433e+03 6.580871931072292682e+03
2.109313723000002767e+02 9.408865785957528715e+03 6.376659606165428158e+03
2.109538326000002826e+02 9.267835747726621776e+03 6.183229547801275658e+03
2.109762929000002885e+02 9.131036717065753692e+03 5.999777994818131447e+03
2.109987532000002943e+02 8.998252874559155316e+03 5.825577785777537429e+03
2.110212135000003002e+02 8.869283956544337343e+03 5.659969539056633948e+03
2.110436738000003061e+02 8.743943820554441118e+03 5.502354015970116961e+03
2.110661341000003119e+02 8.622059170718675887e+03 5.352185486719874461e+03
2.110885944000003178e+02 8.503468422328898669e+03 5.208965949562198148e+03
2.111110547000003237e+02 8.388020687851201728e+03 5.072240078468878892e+03
2.111335150000003296e+02 8.275574869227151794e+03 4.941590794895194449e+03
2.111559753000003354e+02 8.165998843460103672e+03 4.816635375958677287e+03
2.111784356000003413e+02 8.059168730292323744e+03 4.697022025088168448e+03
2.112008959000003472e+02 7.954968232307725884e+03 4.582426842584068254e+03
2.112233562000003531e+02 7.853288039090435632e+03 4.472551142984068065e+03
2.112458165000003589e+02 7.754025288171324064e+03 4.367119074008988719e+03
2.112682768000003648e+02 7.657083076433956194e+03 4.265875498455863635e+03
2.112907371000003707e+02 7.562370016455311088e+03 4.168584105939144138e+03
2.113131974000003765e+02 7.469799832946213428e+03 4.075025726041063990e+03
2.113356577000003824e+02 7.379290995049637786e+03 3.984996818369046650e+03
2.113581180000003883e+02 7.290766380766990551e+03 3.898308118353998907e+03
2.113805783000003942e+02 7.204152970225126410e+03 3.814783420458242290e+03
2.114030386000004000e+02 7.119381564880717633e+03 3.734258482877843562e+03
2.114254989000004059e+02 7.036386530092324392e+03 3.656580039888767260e+03
2.114479592000004118e+02 6.955105558781157015e+03 3.581604909755190420e+03
2.114704195000004177e+02 6.875479454155458370e+03 3.509199187637848809e+03
2.114928798000004235e+02 6.797451929695550461e+03 3.439237514248764910e+03
2.115153401000004294e+02 6.720969424791462188e+03 3.371602412128076139e+03
2.115378004000004353e+02 6.645980934596316729e+03 3.306183682395819687e+03
2.115602607000004411e+02 6.572437852809348442e+03 3.242877855678740616e+03
2.115827210000004470e+02 6.500293826235617416e+03 3.181587691648460350e+03
2.116051813000004529e+02 6.429504620086921932e+03 3.122221722248411879e+03
2.116276416000004588e+02 6.360027993092670840e+03 3.064693834246371807e+03
2.116501019000004646e+02 6.291823581581778853e+03 3.008922887238567455e+03
2.116725622000004705e+02 6.224852791778805113e+03 2.954832363659731982e+03
2.116950225000004764e+02 6.159078699630575102e+03 2.902350047729579728e+03
2.117174828000004823e+02 6.094465957544735829e+03 2.851407730596728470e+03
2.117399431000004881e+02 6.030980707479809098e+03 2.801940939232359597e+03
2.117624034000004940e+02 5.968590499878393530e+03 2.753888686882797629e+03
2.117848637000004999e+02 5.907264217981735783e+03 2.707193243117294969e+03
2.118073240000005057e+02 5.846972007105718149e+03 2.661799921708311103e+03
2.118297843000005116e+02 5.787685208495833649e+03 2.617656884759795048e+03
2.118522446000005175e+02 5.729376297412513850e+03 2.574714961657260119e+03
2.118747049000005234e+02 5.672018825128600838e+03 2.532927481554188034e+03
2.118971652000005292e+02 5.615587364548176993e+03 2.492250118234650927e+03
2.119196255000005351e+02 5.560057459180722617e+03 2.452640746303874948e+03
2.119420858000005410e+02 5.505405575227078771e+03 2.414059307758334398e+03
2.119645461000005469e+02 5.451609056553767914e+03 2.376467688076267677e+03
2.119870064000005527e+02 5.398646082350868710e+03 2.339829601049556459e+03
2.120094667000005586e+02 5.346495627285083174e+03 2.304110481649585381e+03
2.120319270000005645e+02 5.295137423974908415e+03 2.269277386284165914e+03
2.120543873000005703e+02 5.244551927628649537e+03 2.235298899860497841e+03
2.120768476000005762e+02 5.194720282698335723e+03 2.202145049121252669e+03
2.120993079000005821e+02 5.145624291414360414e+03 2.169787221767867777e+03
2.121217682000005880e+02 5.097246384075772767e+03 2.138198090927492558e+03
2.121442285000005938e+02 5.049569590980920111e+03 2.107351544558323894e+03
2.121666888000005997e+02 5.002577515891687653e+03 2.077222619422659136e+03
2.121891491000006056e+02 4.956254310932625231e+03 2.047787439288371843e+03
2.122116094000006115e+02 4.910584652833565087e+03 2.019023157047852692e+03
2.122340697000006173e+02 4.865553720430926660e+03 1.990907900469254400e+03
2.122565300000006232e+02 4.821147173349163495e+03 1.963420721318256255e+03
2.122789903000006291e+02 4.777351131789380815e+03 1.936541547609817599e+03
2.123014506000006349e+02 4.734152157357290889e+03 1.910251138768729561e+03
2.123239109000006408e+02 4.691537234867587358e+03 1.884531043495403992e+03
2.123463712000006467e+02 4.649493755065994264e+03 1.859363560149377008e+03
2.123688315000006526e+02 4.608009498214501946e+03 1.834731699477667689e+03
2.123912918000006584e+02 4.567072618488929038e+03 1.810619149528501566e+03
2.124137521000006643e+02 4.526671629141321318e+03 1.787010242603153301e+03
2.124362124000006702e+02 4.486795388383068712e+03 1.763889924109822914e+03
2.124586727000006761e+02 4.447433085947377549e+03 1.741243723193741289e+03
2.124811330000006819e+02 4.408574230292538232e+03 1.719057725027039396e+03
2.125035933000006878e+02 4.370208636409993233e+03 1.697318544650574722e+03
2.125260536000006937e+02 4.332326414203385866e+03 1.676013302267767358e+03
2.125485139000006996e+02 4.294917957407104950e+03 1.655129599897778007e+03
2.125709742000007054e+02 4.257973933014775866e+03 1.634655499302029966e+03
2.125934345000007113e+02 4.221485271189937521e+03 1.614579501104206201e+03
2.126158948000007172e+02 4.185443155633018250e+03 1.594890525029513128e+03
2.126383551000007230e+02 4.149839014380214394e+03 1.575577891194203630e+03
2.126608154000007289e+02 4.114664511011430477e+03 1.556631302381156502e+03
2.126832757000007348e+02 4.079911536245778279e+03 1.538040827241732359e+03
2.127057360000007407e+02 4.045572199904534045e+03 1.519796884368219480e+03
2.127281963000007465e+02 4.011638823222506289e+03 1.501890227184966534e+03
2.127506566000007524e+02 3.978103931490028117e+03 1.484311929609777053e+03
2.127731169000007583e+02 3.944960247008787064e+03 1.467053372440393332e+03
2.127955772000007642e+02 3.912200682345654513e+03 1.450106230423865327e+03
2.128180375000007700e+02 3.879818333869653998e+03 1.433462459969399106e+03
2.128404978000007759e+02 3.847806475558022612e+03 1.417114287467816666e+03
2.128629581000007818e+02 3.816158553058134657e+03 1.401054198183171820e+03
2.128854184000007876e+02 3.784868177992791516e+03 1.385274925684262143e+03
2.129078787000007935e+02 3.753929122497109802e+03 1.369769441785825848e+03
2.129303390000007994e+02 3.723335313975892404e+03 1.354530946971136018e+03
2.129527993000008053e+02 3.693080830070925003e+03 1.339552861269468622e+03
2.129752596000008111e+02 3.663159893828305485e+03 1.324828815563569151e+03
2.129977199000008170e+02 3.633566869056422092e+03 1.310352643303787772e+03
2.130201802000008229e+02 3.604296255865632702e+03 1.296118372606972571e+03
2.130426405000008288e+02 3.575342686381312888e+03 1.282120218719549712e+03
2.130651008000008346e+02 3.546700920622277408e+03 1.268352576825464212e+03
2.130875611000008405e+02 3.518365842536992204e+03 1.254810015180805294e+03
2.131100214000008464e+02 3.490332456190536504e+03 1.241487268558030109e+03
2.131324817000008522e+02 3.462595882095447905e+03 1.228379231983703448e+03
2.131549420000008581e+02 3.435151353680065313e+03 1.215480954754624463e+03
2.131774023000008640e+02 3.407994213888306604e+03 1.202787634718076788e+03
2.131998626000008699e+02 3.381119911905033405e+03 1.190294612802779739e+03
2.132223229000008757e+02 3.354524000001597869e+03 1.177997367787882695e+03
2.132447832000008816e+02 3.328202130496289101e+03 1.165891511298062369e+03
2.132672435000008875e+02 3.302150052824764771e+03 1.153972783013467506e+03
2.132897038000008934e+02 3.276363610715774485e+03 1.142237046083887662e+03
2.133121641000008992e+02 3.250838739467643791e+03 1.130680282737109337e+03
2.133346244000009051e+02 3.225571463321350620e+03 1.119298590071985245e+03
2.133570847000009110e+02 3.200557892926071418e+03 1.108088176027272539e+03
2.133795450000009168e+02 3.175794222893362075e+03 1.097045355517765529e+03
2.134020053000009227e+02 3.151276729436377082e+03 1.086166546729732090e+03
2.134244656000009286e+02 3.127001768090496626e+03 1.075448267568082429e+03
2.134469259000009345e+02 3.102965771512186620e+03 1.064887132248104308e+03
2.134693862000009403e+02 3.079165247352790175e+03 1.054479848024989678e+03
2.134918465000009462e+02 3.055596776204342405e+03 1.044223212054729629e+03
2.135143068000009521e+02 3.032257009614434537e+03 1.034114108380297466e+03
2.135367671000009580e+02 3.009142668167421107e+03 1.024149505037353492e+03
2.135592274000009638e+02 2.986250539629365903e+03 1.014326451274011788e+03
2.135816877000009697e+02 2.963577477154165990e+03 1.004642074879480560e+03
2.136041480000009756e+02 2.941120397548535493e+03 9.950935796166695582e+02
2.136266083000009814e+02 2.918876279593502204e+03 9.856782427540931621e+02
2.136490686000009873e+02 2.896842162420276509e+03 9.763934126926462795e+02
2.136715289000009932e+02 2.875015143938393976e+03 9.672365066830431033e+02
2.136939892000009991e+02 2.853392379314154368e+03 9.582050086299321947e+02
2.137164495000010049e+02 2.831971079497424398e+03 9.492964669788879064e+02
2.137389098000010108e+02 2.810748509795027076e+03 9.405084926826712035e+02
2.137613701000010167e+02 2.789721988488918669e+03 9.318387572433380228e+02
2.137838304000010226e+02 2.768888885497559386e+03 9.232849908269204207e+02
2.138062907000010284e+02 2.748246621078811586e+03 9.148449804475931160e+02
2.138287510000010343e+02 2.727792664572870763e+03 9.065165682183591116e+02
2.138512113000010402e+02 2.707524533183807307e+03 8.982976496654544007e+02
2.138736716000010460e+02 2.687439790798198374e+03 8.901861721037876123e+02
2.138961319000010519e+02 2.667536046839681603e+03 8.821801330708702835e+02
2.139185922000010578e+02 2.647810955157966418e+03 8.742775788168050894e+02
2.139410525000010637e+02 2.628262212951195579e+03 8.664766028480230489e+02
2.139635128000010695e+02 2.608887559720436002e+03 8.587753445225561109e+02
2.139859731000010754e+02 2.589684776255133329e+03 8.511719876947464627e+02
2.140084334000010813e+02 2.570651683648494782e+03 8.436647594073848495e+02
2.140308937000010872e+02 2.551786142341719824e+03 8.362519286293593268e+02
2.140533540000010930e+02 2.533086051196092285e+03 8.289318050369951152e+02
2.140758143000010989e+02 2.514549346591980793e+03 8.217027378373325064e+02
2.140982746000011048e+02 2.496174001553780272e+03 8.145631146316831064e+02
2.141207349000011106e+02 2.477958024899996417e+03 8.075113603178747326e+02
2.141431952000011165e+02 2.459899460417504542e+03 8.005459360296590603e+02
2.141656555000011224e+02 2.441996386059271572e+03 7.936653381118385369e+02
2.141881158000011283e+02 2.424246913164681246e+03 7.868680971297177393e+02
2.142105761000011341e+02 2.406649185701759052e+03 7.801527769115582487e+02
2.142330364000011400e+02 2.389201379530523354e+03 7.735179736227629519e+02
2.142554967000011459e+02 2.371901701686785145e+03 7.669623148705805988e+02
2.142779570000011518e+02 2.354748389685749771e+03 7.604844588381688482e+02
2.143004173000011576e+02 2.337739710844724414e+03 7.540830934469031490e+02
2.143228776000011635e+02 2.320873961624341064e+03 7.477569355458687141e+02
2.143453379000011694e+02 2.304149466987684264e+03 7.415047301275211566e+02
2.143677982000011752e+02 2.287564579776762912e+03 7.353252495685329677e+02
2.143902585000011811e+02 2.271117680105739964e+03 7.292172928949025845e+02
2.144127188000011870e+02 2.254807174770420716e+03 7.231796850704208737e+02
2.144351791000011929e+02 2.238631496673461697e+03 7.172112763076470401e+02
2.144576394000011987e+02 2.222589104264806338e+03 7.113109414005657527e+02
2.144800997000012046e+02 2.206678480996878989e+03 7.054775790781415026e+02
2.145025600000012105e+02 2.190898134794063481e+03 6.997101113780129253e+02
2.145250203000012164e+02 2.175246597536049194e+03 6.940074830396047219e+02
2.145474806000012222e+02 2.159722424554560803e+03 6.883686609159599357e+02
2.145699409000012281e+02 2.144324194143134264e+03 6.827926334036296794e+02
2.145924012000012340e+02 2.129050507079471572e+03 6.772784098899742276e+02
2.146148615000012398e+02 2.113899986160025037e+03 6.718250202172699801e+02
2.146373218000012457e+02 2.098871275746458650e+03 6.664315141630224844e+02
2.146597821000012516e+02 2.083963041323570906e+03 6.610969609359304968e+02
2.146822424000012575e+02 2.069173969068380757e+03 6.558204486869483389e+02
2.147047027000012633e+02 2.054502765430046566e+03 6.506010840349259752e+02
2.147271630000012692e+02 2.039948156720249472e+03 6.454379916063304563e+02
2.147496233000012751e+02 2.025508888713798342e+03 6.403303135885604433e+02
2.147720836000012810e+02 2.011183726259073865e+03 6.352772092963900832e+02
2.147945439000012868e+02 1.996971452898123061e+03 6.302778547511024954e+02
2.148170042000012927e+02 1.982870870496009502e+03 6.253314422718767673e+02
2.148394645000012986e+02 1.968880798879244821e+03 6.204371800790215730e+02
2.148619248000013044e+02 1.955000075483001638e+03 6.155942919086571692e+02
2.148843851000013103e+02 1.941227555006837520e+03 6.108020166384642380e+02
2.149068454000013162e+02 1.927562109078715821e+03 6.060596079241321377e+02
2.149293057000013221e+02 1.914002625927072586e+03 6.013663338461537933e+02
2.149517660000013279e+02 1.900548010060697607e+03 5.967214765666280982e+02
2.149742263000013338e+02 1.887197181956237955e+03 5.921243319957412723e+02
2.149966866000013397e+02 1.873949077753050233e+03 5.875742094676118086e+02
2.150191469000013456e+02 1.860802648955263521e+03 5.830704314251945561e+02
2.150416072000013514e+02 1.847756862140798376e+03 5.786123331139561969e+02
2.150640675000013573e+02 1.834810698677179516e+03 5.741992622840327840e+02
2.150865278000013632e+02 1.821963154443958956e+03 5.698305789006050190e+02
2.151089881000013690e+02 1.809213239561514456e+03 5.655056548622243326e+02
2.151314484000013749e+02 1.796559978126142823e+03 5.612238737268409068e+02
2.151539087000013808e+02 1.784002407951166106e+03 5.569846304452885306e+02
2.151763690000013867e+02 1.771539580313990200e+03 5.527873311019934590e+02
2.151988293000013925e+02 1.759170559708878727e+03 5.486313926626784223e+02
2.152212896000013984e+02 1.746894423605311658e+03 5.445162427288480558e+02
2.152437499000014043e+02 1.734710262211832287e+03 5.404413192988400851e+02
2.152662102000014102e+02 1.722617178245123114e+03 5.364060705352441119e+02
2.152886705000014160e+02 1.710614286704272217e+03 5.324099545384884777e+02
2.153111308000014219e+02 1.698700714650074360e+03 5.284524391264094447e+02
2.153335911000014278e+02 1.686875600989169243e+03 5.245330016196162433e+02
2.153560514000014336e+02 1.675138096262988483e+03 5.206511286324794128e+02
2.153785117000014395e+02 1.663487362441284176e+03 5.168063158695712218e+02
2.154009720000014454e+02 1.651922572720220842e+03 5.129980679273918440e+02
2.154234323000014513e+02 1.640442911324827037e+03 5.092258981012261074e+02
2.154458926000014571e+02 1.629047573315738191e+03 5.054893281969752366e+02
2.154683529000014630e+02 1.617735764400124481e+03 5.017878883478159651e+02
2.154908132000014689e+02 1.606506700746658453e+03 4.981211168355427503e+02
2.155132735000014748e+02 1.595359608804466461e+03 4.944885599164593373e+02
2.155357338000014806e+02 1.584293725125939091e+03 4.908897716516789842e+02
2.155581941000014865e+02 1.573308296193281194e+03 4.873243137417112507e+02
2.155806544000014924e+02 1.562402578248763348e+03 4.837917553652035849e+02
2.156031147000014982e+02 1.551575837128526018e+03 4.802916730217243071e+02
2.156255750000015041e+02 1.540827348099874598e+03 4.768236503784631282e+02
2.156480353000015100e+02 1.530156395701991869e+03 4.733872781207417120e+02
2.156704956000015159e+02 1.519562273589937604e+03 4.699821538062206514e+02
2.156929559000015217e+02 1.509044284381908938e+03 4.666078817227007676e+02
2.157154162000015276e+02 1.498601739509634399e+03 4.632640727494148791e+02
2.157378765000015335e+02 1.488233959071856361e+03 4.599503442217086899e+02
2.157603368000015394e+02 1.477940271690823920e+03 4.566663197990208687e+02
2.157827971000015452e+02 1.467720014371690922e+03 4.534116293360627878e+02
2.158052574000015511e+02 1.457572532364788458e+03 4.501859087571133387e+02
2.158277177000015570e+02 1.447497179030690859e+03 4.469887999333387825e+02
2.158501780000015629e+02 1.437493315707987222e+03 4.438199505630551585e+02
2.158726383000015687e+02 1.427560311583732528e+03 4.406790140548500290e+02
2.158950986000015746e+02 1.417697543566465129e+03 4.375656494134876766e+02
2.159175589000015805e+02 1.407904396161780369e+03 4.344795211285166943e+02
2.159400192000015863e+02 1.398180261350364617e+03 4.314202990655107897e+02
