timestep	potential_energy	temperature
0	-0.06611470878	0
100000	-566.9055786	0.7255029678
200000	-829.3173218	0.9121627212
300000	-1085.039429	0.9858861566
400000	-1330.003418	1.007661819
500000	-1488.669312	1.022257924
600000	-1697.095825	1.024815083
700000	-1944.170166	1.028926492
800000	-2119.745361	1.019665718
900000	-2355.151367	1.015850902
1000000	-2519.032227	1.028281927
1100000	-2758.138184	1.032502532
1200000	-2956.9375	1.011826873
1300000	-3125.5625	1.021189928
1400000	-3380.584961	1.012080073
1500000	-3674.367432	1.013006568
1600000	-3924.262451	1.025648475
1700000	-4228.324707	1.021014571
1800000	-4462.674805	1.014539123
1900000	-4691.370117	1.015592456
2000000	-4915.341309	1.013816118
2100000	-5218.563965	1.033552647
2200000	-5512.287109	1.026479959
2300000	-5705.239746	1.044294238
2400000	-5911.420898	1.022396326
2500000	-6148.710449	1.025324464
2600000	-6309.675293	1.013093591
2700000	-6407.195801	1.015066504
2800000	-6637.541992	1.014134645
2900000	-6823.233398	1.002025723
3000000	-7065.952148	1.010571003
3100000	-7236.157227	1.006763816
3200000	-7419.045898	1.01717186
3300000	-7725.035156	1.030277014
3400000	-7854.461426	1.020805597
3500000	-8070.34668	1.023117423
3600000	-8258.342773	1.010309935
3700000	-8424.085938	1.003595471
3800000	-8535.742188	0.9998093843
3900000	-8731.109375	1.018183827
4000000	-9009.359375	1.022960544
4100000	-9141.954102	1.040466189
4200000	-9291.871094	1.019111037
4300000	-9559.064453	1.027058721
4400000	-9706.999023	1.016837001
4500000	-9854.793945	1.033043027
4600000	-9995.886719	1.043146253
4700000	-10217.58203	1.029284716
4800000	-10331.50586	1.024229884
4900000	-10552.84277	1.013971925
5000000	-10792.85156	1.013188362
5100000	-11182.87012	1.007297754
5200000	-11354.21484	1.019061446
5300000	-11593.47363	1.032259226
5400000	-11658.08398	1.012970448
5500000	-11891.72754	0.994731307
5600000	-12103.55273	1.01341176
5700000	-12263.60547	0.9985591769
5800000	-12545.99707	1.009423614
5900000	-12694.76172	1.013629675
6000000	-12744.50879	1.016012788
6100000	-12941.56445	1.021507978
6200000	-13137.65332	1.022423983
6300000	-13232.31836	1.011579275
6400000	-13341.5	1.010544896
6500000	-13555.03223	1.02980566
6600000	-13710.37695	1.032902718
6700000	-13864.25195	1.014499664
6800000	-14018.99512	1.007732034
6900000	-14212.63281	0.9924398661
7000000	-14462.26855	1.001504421
7100000	-14740.36523	1.01491797
7200000	-14998.65723	1.006335616
7300000	-15252.08789	1.019298553
7400000	-15363.33008	1.006994486
7500000	-15610.60547	1.013958693
7600000	-15788.58008	1.028036714
7700000	-15932.37402	1.029690504
7800000	-16008.45898	1.012752891
7900000	-16208.17676	0.9917436838
8000000	-16350.8916	1.006377339
8100000	-16596.32422	0.9901268482
8200000	-16907.73828	1.01279366
8300000	-17102.56641	1.004484892
8400000	-17402.05078	1.016266584
8500000	-17461.13672	1.018644214
8600000	-17556.58789	1.005584002
8700000	-17716.35352	1.023204327
8800000	-17799.25391	1.018006086
8900000	-17957.78125	1.030663133
9000000	-18037.14258	1.021161795
9100000	-18014.81055	1.003895044
9200000	-18324.01367	1.008495092
9300000	-18478.68555	1.006167173
9400000	-18768.08594	1.015237212
9500000	-18881.25	1.011827707
9600000	-19112.15039	1.019663453
9700000	-19265.67969	1.015607595
9800000	-19346.14844	1.018355489
9900000	-19502.95508	1.008742094
10000000	-19755.34961	1.020861745
10100000	-19803.52148	1.018086672
10200000	-20005.25391	1.021599889
10300000	-20027.73828	1.01553607
10400000	-20290.75	1.010684848
10500000	-20463.86719	0.9987143278
10600000	-20745.97461	0.9857052565
10700000	-20882.92188	0.993827045
10800000	-21089.57812	1.012041211
10900000	-21215.09766	1.012881398
11000000	-21466.24219	1.01974082
11100000	-21618.87891	1.003403664
11200000	-21721.20898	1.002430677
11300000	-21978.89062	1.008880377
11400000	-22084.4043	0.9876365662
11500000	-22149.18359	1.009258151
11600000	-22226.93945	1.004422784
11700000	-22359.72656	1.018051147
11800000	-22467.69727	1.015821576
11900000	-22537.32031	1.014098763
12000000	-22746.67969	1.022831082
12100000	-23048.83008	1.031048417
12200000	-23048.39453	0.9957633615
12300000	-23272.50781	1.002620578
12400000	-23515.96094	1.006911159
12500000	-23615.95703	1.010520101
12600000	-23730.99805	1.013379216
12700000	-23917.0625	1.023198485
12800000	-24060.92578	1.022954583
12900000	-24153.75	1.014521003
13000000	-24382.40625	1.024401546
13100000	-24470.11719	1.009001136
13200000	-24707.44922	1.009878159
13300000	-24971.24805	1.022473574
13400000	-25065.76172	1.013170242
13500000	-25259.00391	1.008473635
13600000	-25421.23828	1.005765676
13700000	-25556.42188	0.9962459803
13800000	-25687.57031	1.012989163
13900000	-25875.36328	1.024362564
14000000	-26081.65039	1.013940811
14100000	-26112.34961	1.001517057
14200000	-26230.36133	1.00398922
14300000	-26333.2168	1.01749301
14400000	-26467.69531	1.039040089
14500000	-26508.44727	1.020563245
14600000	-26723.27734	1.026085734
14700000	-26908.79688	1.016775727
14800000	-27026.42578	1.01474762
14900000	-27290.41211	1.002978802
15000000	-27552.00977	1.000517011
15100000	-27777.14062	1.019981027
15200000	-28019.83594	1.02282238
15300000	-28252.47266	1.015623808
15400000	-28376.72266	1.001733899
15500000	-28577.11523	1.011888385
15600000	-28699.32422	1.014650464
15700000	-28886.86719	1.010639191
15800000	-28965.91406	1.00227201
15900000	-29073.66406	1.014419556
16000000	-29500.71484	1.021977425
16100000	-29542.00586	1.017196655
16200000	-29759.59375	1.012891293
16300000	-30115.00391	1.032081008
16400000	-30158.49609	1.023326278
16500000	-30241.51758	0.9999594688
16600000	-30686.32031	1.011279106
16700000	-30513.6582	1.016968012
16800000	-30561.25781	1.0071311
16900000	-30737.08789	1.002183199
17000000	-31158.0625	1.012756348
17100000	-31315.81641	1.003678441
17200000	-31516.11914	1.010276079
17300000	-31702.42773	1.00809896
17400000	-32052.81641	1.024916649
17500000	-32306.22461	1.035462976
17600000	-32251.14648	1.022368908
17700000	-32568.64648	1.014302611
17800000	-32905.00781	1.017623901
17900000	-33014.57031	1.010090709
18000000	-33074.35938	1.00162971
18100000	-33295.51953	1.015420437
18200000	-33423.83594	1.010941863
18300000	-33811.45703	1.035133362
18400000	-33811.98438	1.016107678
18500000	-33956.67969	1.011467218
18600000	-34116.64453	1.014976144
18700000	-34245.84375	0.9928373098
18800000	-34471.38281	1.0181638
18900000	-34773.69531	1.033402681
19000000	-34936.58984	1.018698454
19100000	-35286.08594	1.016217828
19200000	-35349.23438	1.02041471
19300000	-35527.25781	1.026909232
19400000	-35806.54297	1.030612469
19500000	-35938.51562	1.018630505
19600000	-36201.875	1.023675561
19700000	-36856.88672	1.028172851
19800000	-37002.99219	1.014310718
19900000	-37209.38672	1.017169595
20000000	-37526.47266	1.02089119
20100000	-37949.82812	1.0066185
20200000	-38237.91406	1.01323998
20300000	-38380.85938	1.009174824
20400000	-38539.30078	1.00150013
20500000	-38929.17969	1.011839986
20600000	-39224.46484	1.037614346
20700000	-39172.01953	1.020635962
20800000	-39455.82812	1.037519813
20900000	-39758.28906	1.030743957
21000000	-39998.57812	1.033183217
21100000	-40207.33594	1.02710557
21200000	-40363.03125	1.029156327
21300000	-40548.16797	1.007874131
21400000	-40988.51562	1.022919893
21500000	-41268.45312	1.03045857
21600000	-41398.83203	1.022363663
21700000	-41598.26562	1.027412772
21800000	-41725.74219	1.020285726
21900000	-41997.89062	1.01437521
22000000	-42291.23438	1.024431825
22100000	-42668.24219	1.01999855
22200000	-43002.33594	1.034750581
22300000	-43258.09375	1.03527844
22400000	-43597.33203	1.038447618
22500000	-43709.17188	1.023163199
22600000	-43969.19531	1.030889988
22700000	-44276.16797	1.025220513
22800000	-44246.99219	1.010991216
22900000	-44649.18359	1.021572709
23000000	-44747.03125	1.01216495
23100000	-45089.40234	1.01802516
23200000	-45413.49219	1.029249907
23300000	-45556.47656	1.013918519
23400000	-45940.51953	1.020919681
23500000	-45945.41016	1.012896061
23600000	-46180.26562	1.034825683
23700000	-46327.375	1.02494061
23800000	-46473.65625	1.022814393
23900000	-46754.48438	1.020599365
24000000	-46924.42188	1.022392631
24100000	-47393.39062	1.011047244
24200000	-47618.5625	1.044847012
24300000	-47740.38281	1.026780844
24400000	-48023.37891	1.02303803
24500000	-48199.02734	1.017997146
24600000	-48304.57422	1.013066411
24700000	-48639.73828	1.013896704
24800000	-48860.52344	1.009331226
24900000	-49095.32812	1.019803643
25000000	-49518.42969	1.00912118
25100000	-49646.16406	1.025121927
25200000	-49896.85547	1.014961958
25300000	-50036.41406	1.031505942
25400000	-50199.05469	1.018925786
25500000	-50552.01562	1.007225275
25600000	-50862.53906	1.012346029
25700000	-51302.96484	1.027688146
25800000	-51472.92578	1.01655817
25900000	-51993.5625	1.0255934
26000000	-51987.33984	1.007469773
26100000	-52351.15234	1.03561008
26200000	-52738.09375	1.032724619
26300000	-52851.66406	1.022962928
26400000	-53011.57031	1.018622756
26500000	-53387.01562	1.014836073
26600000	-53734.60547	1.022087216
26700000	-54159.39844	1.048570037
26800000	-54026.14062	1.021820188
26900000	-54573.82031	1.021472573
27000000	-54762.32031	1.024737835
27100000	-54778.51562	1.026025653
27200000	-55075.92188	1.005599737
27300000	-55379.36719	1.028137565
27400000	-55765.22656	1.027494669
27500000	-56050.13281	1.022812843
27600000	-56374.39453	1.023392797
27700000	-56722.92578	1.017617941
27800000	-57061.80469	1.030291677
27900000	-57331.35938	1.013690591
28000000	-57544.63281	1.028230309
28100000	-57818.47656	1.025540471
28200000	-58113.61719	1.028028369
28300000	-58518.3125	1.022529721
28400000	-58895.96875	1.019245625
28500000	-59362.92969	1.04214108
28600000	-59639.1875	1.022697449
28700000	-59959.30859	1.006711602
28800000	-60353.875	1.02198863
28900000	-60569.8125	1.014301181
29000000	-60801.78906	1.014187098
29100000	-61232.16406	1.024774909
29200000	-61720.73828	1.024919748
29300000	-61720.41797	1.011959672
29400000	-61939.88281	1.032254934
29500000	-62118.71094	1.014435887
29600000	-62346.25391	1.032329202
29700000	-62447.08984	1.026110172
29800000	-62524.64062	1.018175483
29900000	-62868.41406	1.00836122
30000000	-62979.85938	1.025169969
30100000	-63239.78125	1.02675724
30200000	-63270.53906	1.003727794
30300000	-63696.00391	1.026804447
30400000	-64116.25781	1.030828714
30500000	-64355.03125	1.02227664
30600000	-64569.45312	0.9990118146
30700000	-64844.15234	1.013332844
30800000	-65039.75781	1.021097422
30900000	-65212.76172	1.018559694
31000000	-65463.64062	1.036054254
31100000	-65692.28125	1.022954345
31200000	-66226.28125	1.048447967
31300000	-66382.98438	1.025772452
31400000	-66773.90625	1.026811719
31500000	-67161.39062	1.028254867
31600000	-67630.65625	1.029166222
31700000	-67998.85938	1.035709023
31800000	-68280.41406	1.02158308
31900000	-68807.71094	1.019544363
32000000	-68939.52344	1.039447069
32100000	-69169	1.035053968
32200000	-69382.04688	1.037752151
32300000	-69519.53125	1.027854681
32400000	-69762.10938	1.031809688
32500000	-70158.89062	1.033561707
32600000	-70306.82031	1.024577498
32700000	-70483.69531	1.014168024
32800000	-70653.03125	1.013181329
32900000	-70970.58594	1.02749145
33000000	-71298.35938	1.025863647
33100000	-71688.875	1.022778511
33200000	-72019.71875	1.033660293
33300000	-72157.39062	1.031398892
33400000	-72276.51562	1.017822146
33500000	-72510.0625	1.034417391
33600000	-72768.70312	1.029187918
33700000	-73020.625	1.014502764
33800000	-73025.92188	1.015264153
33900000	-73252.01562	1.011198521
34000000	-73600.28125	1.029028654
34100000	-74002.07812	1.032024264
34200000	-73985.34375	1.000872612
34300000	-74407.6875	1.016035795
34400000	-74498.76562	1.015595913
34500000	-74617.28125	1.033439398
34600000	-74526.98438	1.011514306
34700000	-74985.89062	1.013218284
34800000	-75084.03125	1.015713453
34900000	-75546.54688	1.016917229
35000000	-75979.66406	1.016825795
35100000	-76218.14062	1.038825035
35200000	-76390.76562	1.024511576
35300000	-76626.52344	1.022024632
35400000	-76863.42188	1.010264397
35500000	-77402.41406	1.018869519
35600000	-77870.625	1.04135263
35700000	-78063.96875	1.021552086
35800000	-78313.45312	1.032757998
35900000	-78529.71875	1.0213871
36000000	-78916.20312	1.032852292
36100000	-79011.03125	1.019187689
36200000	-79193.49219	1.014689445
36300000	-79714.29688	1.024389029
36400000	-80013.26562	1.029380322
36500000	-80265.01562	1.025336266
36600000	-80521.92969	1.031343818
36700000	-80682.59375	1.028391719
36800000	-80849.375	1.026669025
36900000	-81014.30469	1.025527358
37000000	-81288.70312	1.023782253
37100000	-81585.75	1.003238797
37200000	-81949.10938	1.015806913
37300000	-82055.26562	1.024387479
37400000	-82155.625	1.029663205
37500000	-82418.71875	1.02314198
37600000	-82645.5	1.025225043
37700000	-82857.71094	1.01841414
37800000	-83341.39062	1.033518672
37900000	-83450.4375	1.008242249
38000000	-83606.95312	1.026336432
38100000	-83777.69531	1.025603294
38200000	-83827.03906	1.017499566
38300000	-83968.75	1.015828967
38400000	-84237.71875	1.026153803
38500000	-84398.67188	1.010136485
38600000	-84793.88281	1.006502151
38700000	-85172.6875	0.9991101027
38800000	-85563.79688	1.019174099
38900000	-85527.07812	1.008120298
39000000	-85847.64062	1.021692276
39100000	-85763.10938	1.004521966
39200000	-86038.09375	1.006476998
39300000	-86101.96875	1.006859422
39400000	-86351.45312	1.003642917
39500000	-86514.79688	1.01374948
39600000	-86992.92188	1.004514933
39700000	-87200.13281	1.007707357
39800000	-87594.07812	1.001318336
39900000	-87769.23438	0.996297121
40000000	-87602.0625	0.9902409315
40100000	-88050.875	1.021871328
40200000	-88078.94531	1.020971298
40300000	-88138.5	1.028437972
40400000	-88084.04688	1.021219254
40500000	-88318.42188	1.024349689
40600000	-88515.44531	1.007588863
40700000	-88721.59375	1.009946465
40800000	-89035.29688	1.016508818
40900000	-89432.57812	1.00898695
41000000	-89494.13281	1.01235497
41100000	-89767.94531	1.033321023
41200000	-89769	1.027490616
41300000	-89520.40625	1.015186906
41400000	-90013.46875	1.028145432
41500000	-90031.4375	1.011941195
41600000	-90252.74219	1.013924479
41700000	-90665.71875	1.025594115
41800000	-90892	1.037161589
41900000	-91084.34375	1.011802435
42000000	-91461.9375	1.025032997
42100000	-91576.04688	1.034865856
42200000	-91460.375	1.002916098
42300000	-91647.0625	1.017273068
42400000	-91813.45312	1.016720891
42500000	-92071.65625	1.018819928
42600000	-92138.14062	1.01811111
42700000	-92521.32812	1.002551675
42800000	-92654.57812	1.016903996
42900000	-92477.65625	1.010618448
43000000	-92669.71875	1.011762619
43100000	-92836.67188	1.002872109
43200000	-93074.14062	1.019533515
43300000	-93288.74219	1.019658446
43400000	-93430.84375	1.013284802
43500000	-93350.59375	1.018201828
43600000	-93434.98438	1.014953613
43700000	-93733.60938	1.013709545
43800000	-93805.82812	1.009901881
43900000	-93942.07812	1.018277407
44000000	-94164.36719	1.014309764
44100000	-94499.90625	1.009357095
44200000	-94195.96875	1.000466585
44300000	-94566.11719	1.014544964
44400000	-94475.71875	1.009690523
44500000	-94633.64062	0.9938679338
44600000	-94840.97656	1.012111187
44700000	-94960.85938	1.000458479
44800000	-95432.35938	1.008819222
44900000	-95675.125	1.018293381
45000000	-95563.92969	0.9987182021
45100000	-96017.80469	1.023216844
45200000	-96523.34375	1.0163306
45300000	-96674.03125	1.019833326
45400000	-96654.72656	1.010655761
45500000	-96983.98438	1.032443047
45600000	-97118.08594	1.011932731
45700000	-97359.29688	1.010476232
45800000	-97600.34375	1.015586376
45900000	-97442.72656	1.011357546
46000000	-97845.75781	1.031280279
46100000	-97944.25	1.014236927
46200000	-97968.875	1.006929278
46300000	-98345.73438	1.019024253
46400000	-98725.60156	1.033459187
46500000	-98648.52344	1.014427185
46600000	-98712.17969	1.002905965
46700000	-98916.25	1.005783319
46800000	-99192.22656	1.01464498
46900000	-99349.28906	1.000231862
47000000	-99640.4375	1.014407754
47100000	-99638.60156	1.018629313
47200000	-99543.82812	0.9934132695
47300000	-99555.60156	0.9955468178
47400000	-99804.52344	1.008894682
47500000	-100033.7109	1.021049857
47600000	-100189.7188	0.9943900108
47700000	-100440.1094	1.0171839
47800000	-100449.6562	1.024595618
47900000	-100545.0469	1.014581442
48000000	-100588.1016	1.00398767
48100000	-100732.9688	1.008117199
48200000	-100739.8906	1.00488925
48300000	-101096.5312	1.027007818
48400000	-101055.2656	0.9891346693
48500000	-101238.1016	1.012427926
48600000	-101039.1484	0.9994488955
48700000	-101405.0312	1.004684687
48800000	-101469.0703	1.000632524
48900000	-101455.8047	1.002921939
49000000	-101414.7656	1.005055547
49100000	-101632.4453	1.018475175
49200000	-101887.0625	1.005229712
49300000	-102004.9844	1.006135583
49400000	-102310.1562	1.016358495
49500000	-102399.1562	1.001438737
49600000	-102380.5938	0.988781929
49700000	-102708.7031	1.013872027
49800000	-102815.5156	1.007861733
49900000	-102876.8516	1.013138175
50000000	-102864.4688	1.008421659
50100000	-102782.7656	0.991533637
50200000	-102967.2969	0.9992624521
50300000	-103356.7031	1.01558423
50400000	-103382.1094	1.005345941
50500000	-103637.4688	1.019516706
50600000	-103633.0781	1.016146898
50700000	-103814.5625	1.008686543
50800000	-103872.375	1.002781391
50900000	-103975.5312	0.9979534149
51000000	-104148.6562	1.001375556
51100000	-104559.4062	1.014140248
51200000	-104504.7109	0.9866811037
51300000	-104769.2188	1.00135982
51400000	-104816.3594	1.000502825
51500000	-105066.2266	1.003415465
51600000	-105215.2578	1.02396214
51700000	-105002.5391	0.9992231727
51800000	-105017.7656	0.9960098267
51900000	-105361	1.020526886
52000000	-105478.8438	1.033963323
52100000	-105389.0547	1.008759737
52200000	-105698.7812	1.012148261
52300000	-105941.4922	1.023599863
52400000	-106133.6797	1.014956832
52500000	-106292.7969	1.017834067
52600000	-106287.8047	1.012706518
52700000	-106421.6797	1.032443047
52800000	-106502.7188	1.023132324
52900000	-106680.3906	1.009892225
53000000	-106883	1.026993871
53100000	-106980.5	1.013566256
53200000	-107070.375	1.015510917
53300000	-107067.8359	1.008392453
53400000	-107286.375	1.008498907
53500000	-107276.8125	0.9963414669
53600000	-107344.2344	1.012166739
53700000	-107487.4844	1.036574721
53800000	-107560.7031	1.011915684
53900000	-107722.25	1.005397439
54000000	-108042.9844	1.005740404
54100000	-108096.2656	1.019524932
54200000	-108054.6953	1.008256674
54300000	-108127.2109	0.9939969182
54400000	-108342.7344	1.000327349
54500000	-108574.25	0.9974907637
54600000	-108469.6719	0.9828135371
54700000	-108671.8906	1.001823664
54800000	-108745.4688	1.005142808
54900000	-108934.6797	1.026264906
55000000	-108991.8828	1.018199563
55100000	-109079.4844	1.021118045
55200000	-109058.2344	1.01590836
55300000	-109369.625	1.02283597
55400000	-109271.7031	1.003645897
55500000	-109436.8125	1.026752114
55600000	-109518.3125	1.029086232
55700000	-109679.4375	1.014777422
55800000	-109624.1484	0.9997127056
55900000	-109806.0703	1.022282243
56000000	-109853.2188	1.012489438
56100000	-109860.1094	1.010975242
56200000	-109827.9062	0.9988769889
56300000	-109833.25	0.9987837672
56400000	-110103.0859	1.005789042
56500000	-110189.8594	1.007636786
56600000	-110255.8438	1.015717626
56700000	-110329.8984	1.026278019
56800000	-110571.875	1.035296321
56900000	-110414.7109	1.0220083
57000000	-110637.5469	1.02203238
57100000	-110538.4531	1.01623702
57200000	-110736.7812	1.020592332
57300000	-110935.1562	1.003772378
57400000	-110958.6406	1.012807488
57500000	-111401.8906	1.025288701
57600000	-111489.6172	1.014850259
57700000	-111386.2188	1.010348439
57800000	-111277.5625	0.9991251826
57900000	-111658.1719	1.011261702
58000000	-111814.6406	1.028556943
58100000	-111772.2734	1.002972007
58200000	-111809.0469	1.006160975
58300000	-111974.2031	1.00004518
58400000	-112115.4766	1.021861792
58500000	-112225.2812	1.005600333
58600000	-112428.125	0.9911642075
58700000	-112574.7109	1.009672165
58800000	-112500.9219	1.015704155
58900000	-112496.1719	1.010646582
59000000	-112878.8125	1.002451897
59100000	-112816.2891	1.011270881
59200000	-112941.3438	1.025872588
59300000	-113149.5312	1.011308551
59400000	-113273.4453	1.008324623
