# Distance                   Potential                   Force
2.000100000000000193e+02 5.754827255125015654e+04 1.814902900242054136e+06
2.000303324000000202e+02 3.996453912444923481e+04 4.531757858069721842e+05
2.000506648000000212e+02 3.334778534409268468e+04 2.385195156026478508e+05
2.000709972000000221e+02 2.943869740484722570e+04 1.563456528233329009e+05
2.000913296000000230e+02 2.673033360442666526e+04 1.140468571767648391e+05
2.001116620000000239e+02 2.468914661127582804e+04 8.864615979101497214e+04
2.001319944000000248e+02 2.306803016564441714e+04 7.186659387023339514e+04
2.001523268000000257e+02 2.173352837696088318e+04 6.003691524865605606e+04
2.001726592000000267e+02 2.060590042852963597e+04 5.129296323563625629e+04
2.001929916000000276e+02 1.963394528136185545e+04 4.459313308124065225e+04
2.002133240000000285e+02 1.878296197487755853e+04 3.931226786494140106e+04
2.002336564000000294e+02 1.802842031789836983e+04 3.505369340506463050e+04
2.002539888000000303e+02 1.735238359019098061e+04 3.155424424130419720e+04
2.002743212000000312e+02 1.674136723317366705e+04 2.863283454031799920e+04
2.002946536000000322e+02 1.618499584836320901e+04 2.616099933678876550e+04
2.003149860000000331e+02 1.567512759741584887e+04 2.404521615206114802e+04
2.003353184000000340e+02 1.520526434675463497e+04 2.221587134109394538e+04
2.003556508000000349e+02 1.477014301914234420e+04 2.062013855099597276e+04
2.003759832000000358e+02 1.436544553268589152e+04 1.921724674120055352e+04
2.003963156000000367e+02 1.398758849826792539e+04 1.797525512045807045e+04
2.004166480000000377e+02 1.363356786233718049e+04 1.686880534992206958e+04
2.004369804000000386e+02 1.330084221310611974e+04 1.587752339662063059e+04
2.004573128000000395e+02 1.298724381233537133e+04 1.498486287100936534e+04
2.004776452000000404e+02 1.269090984923024735e+04 1.417725436962509411e+04
2.004979776000000413e+02 1.241022867105130899e+04 1.344347073028182058e+04
2.005183100000000422e+02 1.214379726059353925e+04 1.277414711165238805e+04
2.005386424000000432e+02 1.189038726700700499e+04 1.216141373746363024e+04
2.005589748000000441e+02 1.164891761716660221e+04 1.159861173618672728e+04
2.005793072000000450e+02 1.141843224387205737e+04 1.108007102928010136e+04
2.005996396000000459e+02 1.119808183187639224e+04 1.060093508232607564e+04
2.006199720000000468e+02 1.098710874747480557e+04 1.015702142434644338e+04
2.006403044000000477e+02 1.078483451188264917e+04 9.744709734957759792e+03
2.006606368000000487e+02 1.059064932313387544e+04 9.360851372763210748e+03
2.006809692000000496e+02 1.040400323971407670e+04 9.002695721631087508e+03
2.007013016000000505e+02 1.022439872137735256e+04 8.667829833159976261e+03
2.007216340000000514e+02 1.005138428550102435e+04 8.354128659228939796e+03
2.007419664000000523e+02 9.884549085861401181e+03 8.059713778133216692e+03
2.007622988000000532e+02 9.723518258450541907e+03 7.782918977532818644e+03
2.007826312000000542e+02 9.567948908519882025e+03 7.522261407066605898e+03
2.008029636000000551e+02 9.417526636363776561e+03 7.276417281489264496e+03
2.008232960000000560e+02 9.271962517884290719e+03 7.044201322167647959e+03
2.008436284000000569e+02 9.130990470787752201e+03 6.824549285753916593e+03
2.008639608000000578e+02 8.994364949170667387e+03 6.616503054897601942e+03
2.008842932000000587e+02 8.861858918880850979e+03 6.419197865175891820e+03
2.009046256000000596e+02 8.733262073866537321e+03 6.231851321150591502e+03
2.009249580000000606e+02 8.608379260121500920e+03 6.053753917226831618e+03
2.009452904000000615e+02 8.487029079085403282e+03 5.884260829301986632e+03
2.009656228000000624e+02 8.369042646689415051e+03 5.722784783733883160e+03
2.009859552000000633e+02 8.254262487825842982e+03 5.568789842985360337e+03
2.010062876000000642e+02 8.142541549005976776e+03 5.421785974010758764e+03
2.010266200000000651e+02 8.033742314464100673e+03 5.281324287277970143e+03
2.010469524000000661e+02 7.927736013057194214e+03 5.146992852236432554e+03
2.010672848000000670e+02 7.824401905069840723e+03 5.018413009808662537e+03
2.010876172000000679e+02 7.723626639520685785e+03 4.895236114702775012e+03
2.011079496000000688e+02 7.625303673826886552e+03 4.777140650493802241e+03
2.011282820000000697e+02 7.529332748754191925e+03 4.663829668883946397e+03
2.011486144000000706e+02 7.435619412494425887e+03 4.555028511631838228e+03
2.011689468000000716e+02 7.344074588493732335e+03 4.450482779584127456e+03
2.011892792000000725e+02 7.254614182325924048e+03 4.349956518248328393e+03
2.012096116000000734e+02 7.167158723482345522e+03 4.253230593574662635e+03
2.012299440000000743e+02 7.081633038447793297e+03 4.160101235198352697e+03
2.012502764000000752e+02 6.997965951862603106e+03 4.070378727439460363e+03
2.012706088000000761e+02 6.916090012944626324e+03 3.983886230953184622e+03
2.012909412000000771e+02 6.835941244669505068e+03 3.900458720141885806e+03
2.013112736000000780e+02 6.757458913490564555e+03 3.819942023340964170e+03
2.013316060000000789e+02 6.680585317626639153e+03 3.742191954423598872e+03
2.013519384000000798e+02 6.605265592162450048e+03 3.667073525875504856e+03
2.013722708000000807e+02 6.531447529395764832e+03 3.594460234604704510e+03
2.013926032000000816e+02 6.459081413032246019e+03 3.524233412801481336e+03
2.014129356000000826e+02 6.388119864975617929e+03 3.456281637074348055e+03
2.014332680000000835e+02 6.318517703590421661e+03 3.390500189879245681e+03
2.014536004000000844e+02 6.250231812428924968e+03 3.326790567948329226e+03
2.014739328000000853e+02 6.183221018515283504e+03 3.265060033026146812e+03
2.014942652000000862e+02 6.117445979369906127e+03 3.205221200746741488e+03
2.015145976000000871e+02 6.052869078036959763e+03 3.147191663945957316e+03
2.015349300000000881e+02 5.989454325449020871e+03 3.090893647107443030e+03
2.015552624000000890e+02 5.927167269526418750e+03 3.036253688996374422e+03
2.015755948000000899e+02 5.865974910465360153e+03 2.983202350848024707e+03
2.015959272000000908e+02 5.805845621719695373e+03 2.931673947754603887e+03
2.016162596000000917e+02 5.746749076226454235e+03 2.881606301137961509e+03
2.016365920000000926e+02 5.688656177466090412e+03 2.832940510411918694e+03
2.016569244000000936e+02 5.631538994984894998e+03 2.785620742129676728e+03
2.016772568000000945e+02 5.575370704039901284e+03 2.739594035081941001e+03
2.016975892000000954e+02 5.520125529056305822e+03 2.694810119962780391e+03
2.017179216000000963e+02 5.465778690614093648e+03 2.651221252355108845e+03
2.017382540000000972e+02 5.412306355704713496e+03 2.608782057907892977e+03
2.017585864000000981e+02 5.359685591020446736e+03 2.567449388684651694e+03
2.017789188000000991e+02 5.307894319058899782e+03 2.527182189758877485e+03
2.017992512000001000e+02 5.256911276842935877e+03 2.487941375218075791e+03
2.018195836000001009e+02 5.206715977072596615e+03 2.449689712815268649e+03
2.018399160000001018e+02 5.157288671540327414e+03 2.412391716576135423e+03
2.018602484000001027e+02 5.108610316654288908e+03 2.376013546732228860e+03
2.018805808000001036e+02 5.060662540926659858e+03 2.340522916406804598e+03
2.019009132000001046e+02 5.013427614295086642e+03 2.305889004530336933e+03
2.019212456000001055e+02 4.966888419155506199e+03 2.272082374508358498e+03
2.019415780000001064e+02 4.921028422993900676e+03 2.239074898205500631e+03
2.019619104000001073e+02 4.875831652512984874e+03 2.206839684846800537e+03
2.019822428000001082e+02 4.831282669157672899e+03 2.175351014471083545e+03
2.020025752000001091e+02 4.787366545950127147e+03 2.144584275601781428e+03
2.020229076000001101e+02 4.744068845551892082e+03 2.114515906828230072e+03
2.020432400000001110e+02 4.701375599476460593e+03 2.085123342015703656e+03
2.020635724000001119e+02 4.659273288381187740e+03 2.056384958885283140e+03
2.020839048000001128e+02 4.617748823372431616e+03 2.028280030725472443e+03
2.021042372000001137e+02 4.576789528262605018e+03 2.000788681016452529e+03
2.021245696000001146e+02 4.536383122721896143e+03 1.973891840765125608e+03
2.021449020000001155e+02 4.496517706271520183e+03 1.947571208364863878e+03
2.021652344000001165e+02 4.457181743068900687e+03 1.921809211808298869e+03
2.021855668000001174e+02 4.418364047438612033e+03 1.896588973094619632e+03
2.022058992000001183e+02 4.380053770105923832e+03 1.871894274684910442e+03
2.022262316000001192e+02 4.342240385092740325e+03 1.847709527870069223e+03
2.022465640000001201e+02 4.304913677238319906e+03 1.824019742925959690e+03
2.022668964000001210e+02 4.268063730309625498e+03 1.800810500939703388e+03
2.022872288000001220e+02 4.231680915668447597e+03 1.778067927199536143e+03
2.023075612000001229e+02 4.195755881464535378e+03 1.755778666048454397e+03
2.023278936000001238e+02 4.160279542325911279e+03 1.733929857109061686e+03
2.023482260000001247e+02 4.125243069519413439e+03 1.712509112793636859e+03
2.023685584000001256e+02 4.090637881556081993e+03 1.691504497019514019e+03
2.023888908000001265e+02 4.056455635217736017e+03 1.670904505055488926e+03
2.024092232000001275e+02 4.022688216982391623e+03 1.650698044430117534e+03
2.024295556000001284e+02 3.989327734827620588e+03 1.630874416837551053e+03
2.024498880000001293e+02 3.956366510392171676e+03 1.611423300980936801e+03
2.024702204000001302e+02 3.923797071477380541e+03 1.592334736297514155e+03
2.024905528000001311e+02 3.891612144870960947e+03 1.573599107513249692e+03
2.025108852000001320e+02 3.859804649476813665e+03 1.555207129978384501e+03
2.025312176000001330e+02 3.828367689735474869e+03 1.537149835738440743e+03
2.025515500000001339e+02 3.797294549320621627e+03 1.519418560298259763e+03
2.025718824000001348e+02 3.766578685098020287e+03 1.502004930039372994e+03
2.025922148000001357e+02 3.736213721333965168e+03 1.484900850253603039e+03
2.026125472000001366e+02 3.706193444141059445e+03 1.468098493758148152e+03
2.026328796000001375e+02 3.676511796149855854e+03 1.451590290059638619e+03
2.026532120000001385e+02 3.647162871395477396e+03 1.435368915036677663e+03
2.026735444000001394e+02 3.618140910409010303e+03 1.419427281112323271e+03
2.026938768000001403e+02 3.589440295503936341e+03 1.403758527889716106e+03
2.027142092000001412e+02 3.561055546248495375e+03 1.388356013225726656e+03
2.027345416000001421e+02 3.532981315115280267e+03 1.373213304719034340e+03
2.027548740000001430e+02 3.505212383299871817e+03 1.358324171590479864e+03
2.027752064000001440e+02 3.477743656700755764e+03 1.343682576934872714e+03
2.027955388000001449e+02 3.450570162053179502e+03 1.329282670324693299e+03
2.028158712000001458e+02 3.423687043209960393e+03 1.315118780747272467e+03
2.028362036000001467e+02 3.397089557562664140e+03 1.301185409858143430e+03
2.028565360000001476e+02 3.370773072596872680e+03 1.287477225534254785e+03
2.028768684000001485e+02 3.344733062575630811e+03 1.273989055711705305e+03
2.028972008000001495e+02 3.318965105345395386e+03 1.260715882493521349e+03
2.029175332000001504e+02 3.293464879259181089e+03 1.247652836513861530e+03
2.029378656000001513e+02 3.268228160211779141e+03 1.234795191545781336e+03
2.029581980000001522e+02 3.243250818782252281e+03 1.222138359340436182e+03
2.029785304000001531e+02 3.218528817479092140e+03 1.209677884686277139e+03
2.029988628000001540e+02 3.194058208083718000e+03 1.197409440677439989e+03
2.030191952000001550e+02 3.169835129088102349e+03 1.185328824181111031e+03
2.030395276000001559e+02 3.145855803222647410e+03 1.173431951494243094e+03
2.030598600000001568e+02 3.122116535070511873e+03 1.161714854180493376e+03
2.030801924000001577e+02 3.098613708764819421e+03 1.150173675078774977e+03
2.031005248000001586e+02 3.075343785765350731e+03 1.138804664475263962e+03
2.031208572000001595e+02 3.052303302711479319e+03 1.127604176431152609e+03
2.031411896000001605e+02 3.029488869348242588e+03 1.116568665258840838e+03
2.031615220000001614e+02 3.006897166522609950e+03 1.105694682139652741e+03
2.031818544000001623e+02 2.984524944247151780e+03 1.094978871876531230e+03
2.032021868000001632e+02 2.962369019828383898e+03 1.084417969775490974e+03
2.032225192000001641e+02 2.940426276057308769e+03 1.074008798649958408e+03
2.032428516000001650e+02 2.918693659459610444e+03 1.063748265942403805e+03
2.032631840000001660e+02 2.897168178603262731e+03 1.053633360957983314e+03
2.032835164000001669e+02 2.875846902461283662e+03 1.043661152205154167e+03
2.033038488000001678e+02 2.854726958827492581e+03 1.033828784838507545e+03
2.033241812000001687e+02 2.833805532783293074e+03 1.024133478199275260e+03
2.033445136000001696e+02 2.813079865213470839e+03 1.014572523449220967e+03
2.033648460000001705e+02 2.792547251369227524e+03 1.005143281293817608e+03
2.033851784000001715e+02 2.772205039476582897e+03 9.958431797908376666e+02
2.034055108000001724e+02 2.752050629388551442e+03 9.866697122406488916e+02
2.034258432000001733e+02 2.732081471279363086e+03 9.776204351547132774e+02
2.034461756000001742e+02 2.712295064379259202e+03 9.686929662989390408e+02
2.034665080000001751e+02 2.692688955748323679e+03 9.598849828087112428e+02
2.034868404000001760e+02 2.673260739087933416e+03 9.511942193725666357e+02
2.035071728000001769e+02 2.654008053588470375e+03 9.426184664816350960e+02
2.035275052000001779e+02 2.634928582811980050e+03 9.341555687420984668e+02
2.035478376000001788e+02 2.616020053608534454e+03 9.258034232480509900e+02
2.035681700000001797e+02 2.597280235065063607e+03 9.175599780122670381e+02
2.035885024000001806e+02 2.578706937485544586e+03 9.094232304525013433e+02
2.036088348000001815e+02 2.560298011401419444e+03 9.013912259310528725e+02
2.036291672000001824e+02 2.542051346611161080e+03 8.934620563454296871e+02
2.036494996000001834e+02 2.523964871248029795e+03 8.856338587680568253e+02
2.036698320000001843e+02 2.506036550874983732e+03 8.779048141330530370e+02
2.036901644000001852e+02 2.488264387605834600e+03 8.702731459681978095e+02
2.037104968000001861e+02 2.470646419251718271e+03 8.627371191703026625e+02
2.037308292000001870e+02 2.453180718492083088e+03 8.552950388222598122e+02
2.037511616000001879e+02 2.435865392069284098e+03 8.479452490501442981e+02
2.037714940000001889e+02 2.418698580006035627e+03 8.406861319187950130e+02
2.037918264000001898e+02 2.401678454844932730e+03 8.335161063643880652e+02
2.038121588000001907e+02 2.384803220909331685e+03 8.264336271625656991e+02
2.038324912000001916e+02 2.368071113584826435e+03 8.194371839307582377e+02
2.038528236000001925e+02 2.351480398620713004e+03 8.125253001633939220e+02
2.038731560000001934e+02 2.335029371450717008e+03 8.056965322987379068e+02
2.038934884000001944e+02 2.318716356532403552e+03 7.989494688161735212e+02
2.039138208000001953e+02 2.302539706704619221e+03 7.922827293627702829e+02
2.039341532000001962e+02 2.286497802562432753e+03 7.856949639080509087e+02
2.039544856000001971e+02 2.270589051848954114e+03 7.791848519259001478e+02
2.039748180000001980e+02 2.254811888863548575e+03 7.727511016026130619e+02
2.039951504000001989e+02 2.239164773885873728e+03 7.663924490701180048e+02
2.040154828000001999e+02 2.223646192615267410e+03 7.601076576634495723e+02
2.040358152000002008e+02 2.208254655624987663e+03 7.538955172015894277e+02
2.040561476000002017e+02 2.192988697830870024e+03 7.477548432908215545e+02
2.040764800000002026e+02 2.177846877973880964e+03 7.416844766497940782e+02
2.040968124000002035e+02 2.162827778116230547e+03 7.356832824555004890e+02
2.041171448000002044e+02 2.147930003150532684e+03 7.297501497094394836e+02
2.041374772000002054e+02 2.133152180321685591e+03 7.238839906232273052e+02
2.041578096000002063e+02 2.118492958761044974e+03 7.180837400229773948e+02
2.041781420000002072e+02 2.103951009032508409e+03 7.123483547717872852e+02
2.041984744000002081e+02 2.089525022690173500e+03 7.066768132096918862e+02
2.042188068000002090e+02 2.075213711847221930e+03 7.010681146104797108e+02
2.042391392000002099e+02 2.061015808755651960e+03 6.955212786547795076e+02
2.042594716000002109e+02 2.046930065396597684e+03 6.900353449188605737e+02
2.042798040000002118e+02 2.032955253080860302e+03 6.846093723786016199e+02
2.043001364000002127e+02 2.019090162059397471e+03 6.792424389281095500e+02
2.043204688000002136e+02 2.005333601143430542e+03 6.739336409124920237e+02
2.043408012000002145e+02 1.991684397333927109e+03 6.686820926742951769e+02
2.043611336000002154e+02 1.978141395460180775e+03 6.634869261131560734e+02
2.043814660000002164e+02 1.964703457827185275e+03 6.583472902582150255e+02
2.044017984000002173e+02 1.951369463871607422e+03 6.532623508528679395e+02
2.044221308000002182e+02 1.938138309826055092e+03 6.482312899514437277e+02
2.044424632000002191e+02 1.925008908391441764e+03 6.432533055274129765e+02
2.044627956000002200e+02 1.911980188417207728e+03 6.383276110927481568e+02
2.044831280000002209e+02 1.899051094589154445e+03 6.334534353280635059e+02
2.045034604000002219e+02 1.886220587124699705e+03 6.286300217231907936e+02
2.045237928000002228e+02 1.873487641475349164e+03 6.238566282278436574e+02
2.045441252000002237e+02 1.860851248036149173e+03 6.191325269120460462e+02
2.045644576000002246e+02 1.848310411861971033e+03 6.144570036360106542e+02
2.045847900000002255e+02 1.835864152390390473e+03 6.098293577291617567e+02
2.046051224000002264e+02 1.823511503171016102e+03 6.052489016780106112e+02
2.046254548000002274e+02 1.811251511601081120e+03 6.007149608226033024e+02
2.046457872000002283e+02 1.799083238667111345e+03 5.962268730612655645e+02
2.046661196000002292e+02 1.787005758692516565e+03 5.917839885633852646e+02
2.046864520000002301e+02 1.775018159090945801e+03 5.873856694899785680e+02
2.047067844000002310e+02 1.763119540125247568e+03 5.830312897217993395e+02
2.047271168000002319e+02 1.751309014671884370e+03 5.787202345947497406e+02
2.047474492000002328e+02 1.739585707990636593e+03 5.744519006423736300e+02
2.047677816000002338e+02 1.727948757499501653e+03 5.702256953452074413e+02
2.047881140000002347e+02 1.716397312554609925e+03 5.660410368867819670e+02
2.048084464000002356e+02 1.704930534235016921e+03 5.618973539160680275e+02
2.048287788000002365e+02 1.693547595132293736e+03 5.577940853161721861e+02
2.048491112000002374e+02 1.682247679144728636e+03 5.537306799790889045e+02
2.048694436000002383e+02 1.671029981276073613e+03 5.497065965863315569e+02
2.048897760000002393e+02 1.659893707438679712e+03 5.457213033952580190e+02
2.049101084000002402e+02 1.648838074260914482e+03 5.417742780309282580e+02
2.049304408000002411e+02 1.637862308898776291e+03 5.378650072833193008e+02
2.049507732000002420e+02 1.626965648851555216e+03 5.339929869097466053e+02
2.049711056000002429e+02 1.616147341781477962e+03 5.301577214423317628e+02
2.049914380000002438e+02 1.605406645337210648e+03 5.263587240003707848e+02
2.050117704000002448e+02 1.594742826981127564e+03 5.225955161074590478e+02
2.050321028000002457e+02 1.584155163820252483e+03 5.188676275132277169e+02
2.050524352000002466e+02 1.573642942440771549e+03 5.151745960195684120e+02
2.050727676000002475e+02 1.563205458746047270e+03 5.115159673112035534e+02
2.050931000000002484e+02 1.552842017798029929e+03 5.078912947904851194e+02
2.051134324000002493e+02 1.542551933661978182e+03 5.043001394162980660e+02
2.051337648000002503e+02 1.532334529254426116e+03 5.007420695469463112e+02
2.051540972000002512e+02 1.522189136194288039e+03 4.972166607869140194e+02
2.051744296000002521e+02 1.512115094657073769e+03 4.937234958373873042e+02
2.051947620000002530e+02 1.502111753232066349e+03 4.902621643504312487e+02
2.052150944000002539e+02 1.492178468782445179e+03 4.868322627867187862e+02
2.052354268000002548e+02 1.482314606308285647e+03 4.834333942767116810e+02
2.052557592000002558e+02 1.472519538812305200e+03 4.800651684851961818e+02
2.052760916000002567e+02 1.462792647168375197e+03 4.767272014790802359e+02
2.052964240000002576e+02 1.453133319992655288e+03 4.734191155983619979e+02
2.053167564000002585e+02 1.443540953517335311e+03 4.701405393301806726e+02
2.053370888000002594e+02 1.434014951466905814e+03 4.668911071858649962e+02
2.053574212000002603e+02 1.424554724936893081e+03 4.636704595808963063e+02
2.053777536000002613e+02 1.415159692275017278e+03 4.604782427177097475e+02
