# Distance                   Potential                   Force
1.700085000000000264e+02 5.214260299856510392e+04 1.890340542139679426e+06
1.700301551000000302e+02 3.470346064803235640e+04 3.881597254825289710e+05
1.700518102000000340e+02 2.877897262599082023e+04 1.972728078705278749e+05
1.700734653000000378e+02 2.536150092665533157e+04 1.274510567042498151e+05
1.700951204000000416e+02 2.301952920510777039e+04 9.224704517938299978e+04
1.701167755000000454e+02 2.126545129989551060e+04 7.135811342959734611e+04
1.701384306000000493e+02 1.987787734879010532e+04 5.766639303770989500e+04
1.701600857000000531e+02 1.873870665836764965e+04 4.806670941092561407e+04
1.701817408000000569e+02 1.777796933279768200e+04 4.100006890806303272e+04
1.702033959000000607e+02 1.695101650133388102e+04 3.560253077571018366e+04
1.702250510000000645e+02 1.622773151510864591e+04 3.135882166400378992e+04
1.702467061000000683e+02 1.558690485165589234e+04 2.794361068543844885e+04
1.702683612000000721e+02 1.501307521629486655e+04 2.514193069912190185e+04
1.702900163000000759e+02 1.449464841964743027e+04 2.280635323370834158e+04
1.703116714000000798e+02 1.402272255863663304e+04 2.083258301449360442e+04
1.703333265000000836e+02 1.359032478369712044e+04 1.914487443470484868e+04
1.703549816000000874e+02 1.319189869112261113e+04 1.768696240531776857e+04
1.703766367000000912e+02 1.282295011367383995e+04 1.641622698343062439e+04
1.703982918000000950e+02 1.247979626904449287e+04 1.529982648905964743e+04
1.704199469000000988e+02 1.215938424646800195e+04 1.431206830457113574e+04
1.704416020000001026e+02 1.185915715283881764e+04 1.343258023317553489e+04
1.704632571000001064e+02 1.157695372849979140e+04 1.264501280212172605e+04
1.704849122000001103e+02 1.131093192136713515e+04 1.193610163129458851e+04
1.705065673000001141e+02 1.105950990742675640e+04 1.129497890711755099e+04
1.705282224000001179e+02 1.082132001345260687e+04 1.071266032452107356e+04
1.705498775000001217e+02 1.059517231596112833e+04 1.018165765870244832e+04
1.705715326000001255e+02 1.038002559016778469e+04 9.695682628761274827e+03
1.705931877000001293e+02 1.017496390745759163e+04 9.249418007002757804e+03
1.706148428000001331e+02 9.979177620505051891e+03 8.838338882226742498e+03
1.706364979000001370e+02 9.791947790426869688e+03 8.458571761123535907e+03
1.706581530000001408e+02 9.612633338891399035e+03 8.106782520527607630e+03
1.706798081000001446e+02 9.440660375819483306e+03 7.780086575246766188e+03
1.707014632000001484e+02 9.275513277780080898e+03 7.475976309264492556e+03
1.707231183000001522e+02 9.116727185532774456e+03 7.192262036808211633e+03
1.707447734000001560e+02 8.963881659865972324e+03 6.927023651953574699e+03
1.707664285000001598e+02 8.816595288911650641e+03 6.678570785303620141e+03
1.707880836000001636e+02 8.674521081766639327e+03 6.445409779034497660e+03
1.708097387000001675e+02 8.537342515613154319e+03 6.226216162884387813e+03
1.708313938000001713e+02 8.404770128867912717e+03 6.019811595797707923e+03
1.708530489000001751e+02 8.276538572866089453e+03 5.825144454041898825e+03
1.708747040000001789e+02 8.152404050443413325e+03 5.641273413390696078e+03
1.708963591000001827e+02 8.032142082445965571e+03 5.467353502592011864e+03
1.709180142000001865e+02 7.915545553375732197e+03 5.302624206765990493e+03
1.709396693000001903e+02 7.802422995605631513e+03 5.146399279249641950e+03
1.709613244000001941e+02 7.692597078281178256e+03 4.998057983681485894e+03
1.709829795000001980e+02 7.585903272484481931e+03 4.857037538539127127e+03
1.710046346000002018e+02 7.482188668715293716e+03 4.722826576737322284e+03
1.710262897000002056e+02 7.381310926437439775e+03 4.594959465426175484e+03
1.710479448000002094e+02 7.283137338497192104e+03 4.473011357459427018e+03
1.710695999000002132e+02 7.187543995763841849e+03 4.356593867415088425e+03
1.710912550000002170e+02 7.094415039466685812e+03 4.245351282542553236e+03
1.711129101000002208e+02 7.003641990483023619e+03 4.138957233361899853e+03
1.711345652000002246e+02 6.915123146329638075e+03 4.037111760465012594e+03
1.711562203000002285e+02 6.828763037875247392e+03 3.939538723848666905e+03
1.711778754000002323e+02 6.744471938862753632e+03 3.845983509230879463e+03
1.711995305000002361e+02 6.662165422241253509e+03 3.756210992569971950e+03
1.712211856000002399e+02 6.581763958084235128e+03 3.670003729666301297e+03
1.712428407000002437e+02 6.503192548534889283e+03 3.587160342476932328e+03
1.712644958000002475e+02 6.426380395789133217e+03 3.507494077772862966e+03
1.712861509000002513e+02 6.351260599617146909e+03 3.430831517146371425e+03
1.713078060000002552e+02 6.277769881347005139e+03 3.357011420237639868e+03
1.713294611000002590e+02 6.205848331599569974e+03 3.285883685481183420e+03
1.713511162000002628e+02 6.135439179380678979e+03 3.217308414744230504e+03
1.713727713000002666e+02 6.066488580412262309e+03 3.151155069999201714e+03
1.713944264000002704e+02 5.998945422823830995e+03 3.087301711688620344e+03
1.714160815000002742e+02 5.932761148535369102e+03 3.025634309742974438e+03
1.714377366000002780e+02 5.867889588845880098e+03 2.966046119333129354e+03
1.714593917000002818e+02 5.804286812902715610e+03 2.908437114406392993e+03
1.714810468000002857e+02 5.741910987867917356e+03 2.852713472892277423e+03
1.715027019000002895e+02 5.680722249722228298e+03 2.798787108189470018e+03
1.715243570000002933e+02 5.620682583757164139e+03 2.746575242175998483e+03
1.715460121000002971e+02 5.561755713902416574e+03 2.696000015533352780e+03
1.715676672000003009e+02 5.503907000121763303e+03 2.646988131654205063e+03
1.715893223000003047e+02 5.447103343186809070e+03 2.599470530821958619e+03
1.716109774000003085e+02 5.391313096205475631e+03 2.553382091717010553e+03
1.716326325000003123e+02 5.336505982342497191e+03 2.508661357626313475e+03
1.716542876000003162e+02 5.282653018222724313e+03 2.465250285015697955e+03
1.716759427000003200e+02 5.229726442556087932e+03 2.423094012373489477e+03
1.716975978000003238e+02 5.177699649565839536e+03 2.382140647453695237e+03
1.717192529000003276e+02 5.126547126840145211e+03 2.342341071241234658e+03
1.717409080000003314e+02 5.076244397261512859e+03 2.303648757133570598e+03
1.717625631000003352e+02 5.026767964699424738e+03 2.266019603985450431e+03
1.717842182000003390e+02 4.978095263179409812e+03 2.229411781798777611e+03
1.718058733000003429e+02 4.930204609266812440e+03 2.193785588959947290e+03
1.718275284000003467e+02 4.883075157426078476e+03 2.159103320034114859e+03
1.718491835000003505e+02 4.836686858136845331e+03 2.125329143221424147e+03
1.718708386000003543e+02 4.791020418566475200e+03 2.092428986665563571e+03
1.718924937000003581e+02 4.746057265615410870e+03 2.060370432881329634e+03
1.719141488000003619e+02 4.701779511166893826e+03 2.029122620636245301e+03
1.719358039000003657e+02 4.658169919386194124e+03 1.998656153682517925e+03
1.719574590000003695e+02 4.615211875927117035e+03 1.968943015790701338e+03
1.719791141000003734e+02 4.572889358914760123e+03 1.939956491585829554e+03
1.720007692000003772e+02 4.531186911583898109e+03 1.911671092731341105e+03
1.720224243000003810e+02 4.490089616461711557e+03 1.884062489046214068e+03
1.720440794000003848e+02 4.449583070992237481e+03 1.857107444176902391e+03
1.720657345000003886e+02 4.409653364507659717e+03 1.830783755478383227e+03
1.720873896000003924e+02 4.370287056458806546e+03 1.805070197788124233e+03
1.721090447000003962e+02 4.331471155823682238e+03 1.779946470803575494e+03
1.721306998000004000e+02 4.293193101618968285e+03 1.755393149797995420e+03
1.721523549000004039e+02 4.255440744444827033e+03 1.731391639431412614e+03
1.721740100000004077e+02 4.218202328998461780e+03 1.707924130433487562e+03
1.721956651000004115e+02 4.181466477496474909e+03 1.684973558953176962e+03
1.722173202000004153e+02 4.145222173950372962e+03 1.662523568386611032e+03
1.722389753000004191e+02 4.109458749243411148e+03 1.640558473509614487e+03
1.722606304000004229e+02 4.074165866960680432e+03 1.619063226755017922e+03
1.722822855000004267e+02 4.039333509927548675e+03 1.598023386487393736e+03
1.723039406000004305e+02 4.004951967414760929e+03 1.577425087139257812e+03
1.723255957000004344e+02 3.971011822971198853e+03 1.557255011083233967e+03
1.723472508000004382e+02 3.937503942848031329e+03 1.537500362124188086e+03
1.723689059000004420e+02 3.904419464980309385e+03 1.518148840504105010e+03
1.723905610000004458e+02 3.871749788494375480e+03 1.499188619320469343e+03
1.724122161000004496e+02 3.839486563711458984e+03 1.480608322266247797e+03
1.724338712000004534e+02 3.807621682619773765e+03 1.462397002606337537e+03
1.724555263000004572e+02 3.776147269789215898e+03 1.444544123311490011e+03
1.724771814000004611e+02 3.745055673704401215e+03 1.427039538276449775e+03
1.724988365000004649e+02 3.714339458493299844e+03 1.409873474554252425e+03
1.725204916000004687e+02 3.683991396030159194e+03 1.393036515543461974e+03
1.725421467000004725e+02 3.654004458392733795e+03 1.376519585069552249e+03
1.725638018000004763e+02 3.624371810655045010e+03 1.360313932305742583e+03
1.725854569000004801e+02 3.595086803998045980e+03 1.344411117482360396e+03
1.726071120000004839e+02 3.566142969121661736e+03 1.328802998337302142e+03
1.726287671000004877e+02 3.537534009942616649e+03 1.313481717263372502e+03
1.726504222000004916e+02 3.509253797563401804e+03 1.298439689111264670e+03
1.726720773000004954e+02 3.481296364498659386e+03 1.283669589609706918e+03
1.726937324000004992e+02 3.453655899145920557e+03 1.269164344366825844e+03
1.727153875000005030e+02 3.426326740488578253e+03 1.254917118419172539e+03
1.727370426000005068e+02 3.399303373019510218e+03 1.240921306297015917e+03
1.727586977000005106e+02 3.372580421874508829e+03 1.227170522576557687e+03
1.727803528000005144e+02 3.346152648165309529e+03 1.213658592891596527e+03
1.728020079000005182e+02 3.320014944502489470e+03 1.200379545378929834e+03
1.728236630000005221e+02 3.294162330699159611e+03 1.187327602533391428e+03
1.728453181000005259e+02 3.268589949646793229e+03 1.174497173449951561e+03
1.728669732000005297e+02 3.243293063355067716e+03 1.161882846431698908e+03
1.728886283000005335e+02 3.218267049147995749e+03 1.149479381943838916e+03
1.729102834000005373e+02 3.193507396009043987e+03 1.137281705895058394e+03
1.729319385000005411e+02 3.169009701068389404e+03 1.125284903228748590e+03
1.729535936000005449e+02 3.144769666225725359e+03 1.113484211807620341e+03
1.729752487000005488e+02 3.120783094902478751e+03 1.101875016576254438e+03
1.729969038000005526e+02 3.097045888917549291e+03 1.090452843987036431e+03
1.730185589000005564e+02 3.073554045481038429e+03 1.079213356675787281e+03
1.730402140000005602e+02 3.050303654300674680e+03 1.068152348374207349e+03
1.730618691000005640e+02 3.027290894795978602e+03 1.057265739047007173e+03
1.730835242000005678e+02 3.004512033415386668e+03 1.046549570242286791e+03
1.731051793000005716e+02 2.981963421051856585e+03 1.036000000644399051e+03
1.731268344000005754e+02 2.959641490552689447e+03 1.025613301819132403e+03
1.731484895000005793e+02 2.937542754319463711e+03 1.015385854141636401e+03
1.731701446000005831e+02 2.915663801994293408e+03 1.005314142898044679e+03
1.731917997000005869e+02 2.894001298228666201e+03 9.953947545522617020e+02
1.732134548000005907e+02 2.872551980531433401e+03 9.856243731698456259e+02
1.732351099000005945e+02 2.851312657192605002e+03 9.759997769913751426e+02
1.732567650000005983e+02 2.830280205279784241e+03 9.665178351480999481e+02
1.732784201000006021e+02 2.809451568704257625e+03 9.571755045130605595e+02
1.733000752000006059e+02 2.788823756353861882e+03 9.479698266812459906e+02
1.733217303000006098e+02 2.768393840289904801e+03 9.388979250726910095e+02
1.733433854000006136e+02 2.748158954005545183e+03 9.299570021527447352e+02
1.733650405000006174e+02 2.728116290743130776e+03 9.211443367640488304e+02
1.733866956000006212e+02 2.708263101868180001e+03 9.124572815650528810e+02
1.734083507000006250e+02 2.688596695297686438e+03 9.038932605701589864e+02
1.734300058000006288e+02 2.669114433980671038e+03 8.954497667868540702e+02
1.734516609000006326e+02 2.649813734428870248e+03 8.871243599454129480e+02
1.734733160000006364e+02 2.630692065295616430e+03 8.789146643170003017e+02
1.734949711000006403e+02 2.611746946001076140e+03 8.708183666161984320e+02
1.735166262000006441e+02 2.592975945401998615e+03 8.628332139841945718e+02
1.735382813000006479e+02 2.574376680504314663e+03 8.549570120490527643e+02
1.735599364000006517e+02 2.555946815216929735e+03 8.471876230596760706e+02
1.735815915000006555e+02 2.537684059145159154e+03 8.395229640902247183e+02
1.736032466000006593e+02 2.519586166422319820e+03 8.319610053119272379e+02
1.736249017000006631e+02 2.501650934578027773e+03 8.244997683293706814e+02
1.736465568000006670e+02 2.483876203441860525e+03 8.171373245784870960e+02
1.736682119000006708e+02 2.466259854081069079e+03 8.098717937836067904e+02
1.736898670000006746e+02 2.448799807771076303e+03 8.027013424710619347e+02
1.737115221000006784e+02 2.431494024997579800e+03 7.956241825369504568e+02
1.737331772000006822e+02 2.414340504489103296e+03 7.886385698667867246e+02
1.737548323000006860e+02 2.397337282278897419e+03 7.817428030048693017e+02
1.737764874000006898e+02 2.380482430795129403e+03 7.749352218712980402e+02
1.737981425000006936e+02 2.363774057978377641e+03 7.682142065246795255e+02
1.738197976000006975e+02 2.347210306425413819e+03 7.615781759686352643e+02
1.738414527000007013e+02 2.330789352558386327e+03 7.550255870003306882e+02
1.738631078000007051e+02 2.314509405818512732e+03 7.485549330993145531e+02
1.738847629000007089e+02 2.298368707883393199e+03 7.421647433550436972e+02
1.739064180000007127e+02 2.282365531907142667e+03 7.358535814315362131e+02
1.739280731000007165e+02 2.266498181782575557e+03 7.296200445676719255e+02
1.739497282000007203e+02 2.250764991424636719e+03 7.234627626117257932e+02
1.739713833000007241e+02 2.235164324074423348e+03 7.173803970887784089e+02
1.739930384000007280e+02 2.219694571623001139e+03 7.113716402997141586e+02
1.740146935000007318e+02 2.204354153954457161e+03 7.054352144505712658e+02
1.740363486000007356e+02 2.189141518307442766e+03 6.995698708110662665e+02
1.740580037000007394e+02 2.174055138654676739e+03 6.937743889011628653e+02
1.740796588000007432e+02 2.159093515099722481e+03 6.880475757046049239e+02
1.741013139000007470e+02 2.144255173290560833e+03 6.823882649083883507e+02
1.741229690000007508e+02 2.129538663849312798e+03 6.767953161671772477e+02
1.741446241000007547e+02 2.114942561817680144e+03 6.712676143917256013e+02
1.741662792000007585e+02 2.100465466117491815e+03 6.658040690603975236e+02
1.741879343000007623e+02 2.086105999025967776e+03 6.604036135529229341e+02
1.742095894000007661e+02 2.071862805665134147e+03 6.550652045055563804e+02
1.742312445000007699e+02 2.057734553505002168e+03 6.497878211868512608e+02
1.742528996000007737e+02 2.043719931880043760e+03 6.445704648932811551e+02
1.742745547000007775e+02 2.029817651518545972e+03 6.394121583639870323e+02
1.742962098000007813e+02 2.016026444084440755e+03 6.343119452139477517e+02
1.743178649000007852e+02 2.002345061731200531e+03 6.292688893849057195e+02
1.743395200000007890e+02 1.988772276667460574e+03 6.242820746134040064e+02
1.743611751000007928e+02 1.975306880733977550e+03 6.193506039153223810e+02
1.743828302000007966e+02 1.961947684991549295e+03 6.144735990863212010e+02
1.744044853000008004e+02 1.948693519319635470e+03 6.096502002176204087e+02
1.744261404000008042e+02 1.935543232025244151e+03 6.048795652265808940e+02
1.744477955000008080e+02 1.922495689461882421e+03 6.001608694015568517e+02
1.744694506000008118e+02 1.909549775658175577e+03 5.954933049605205042e+02
1.744911057000008157e+02 1.896704391955921665e+03 5.908760806229813625e+02
1.745127608000008195e+02 1.883958456657258012e+03 5.863084211947330004e+02
1.745344159000008233e+02 1.871310904680707381e+03 5.817895671649889664e+02
1.745560710000008271e+02 1.858760687225793163e+03 5.773187743154740019e+02
1.745777261000008309e+02 1.846306771446014864e+03 5.728953133410681176e+02
1.745993812000008347e+02 1.833948140129907870e+03 5.685184694816036881e+02
1.746210363000008385e+02 1.821683791389958287e+03 5.641875421644411972e+02
1.746426914000008423e+02 1.809512738359149125e+03 5.599018446574561949e+02
1.746643465000008462e+02 1.797434008894897715e+03 5.556607037320890186e+02
1.746860016000008500e+02 1.785446645290216566e+03 5.514634593361200814e+02
1.747076567000008538e+02 1.773549703991810020e+03 5.473094642758445616e+02
1.747293118000008576e+02 1.761742255325008955e+03 5.431980839073401057e+02
1.747509669000008614e+02 1.750023383225237467e+03 5.391286958365184319e+02
1.747726220000008652e+02 1.738392184975942428e+03 5.351006896276822999e+02
1.747942771000008690e+02 1.726847770952685096e+03 5.311134665202996530e+02
1.748159322000008729e+02 1.715389264373331571e+03 5.271664391537362917e+02
1.748375873000008767e+02 1.704015801054090844e+03 5.232590312996806006e+02
1.748592424000008805e+02 1.692726529171268112e+03 5.193906776020191955e+02
1.748808975000008843e+02 1.681520609028578065e+03 5.155608233239172478e+02
1.749025526000008881e+02 1.670397212829866021e+03 5.117689241018798612e+02
1.749242077000008919e+02 1.659355524457068896e+03 5.080144457065662209e+02
1.749458628000008957e+02 1.648394739253291391e+03 5.042968638101445435e+02
1.749675179000008995e+02 1.637514063810844618e+03 5.006156637599825672e+02
1.749891730000009034e+02 1.626712715764129143e+03 4.969703403584720718e+02
1.750108281000009072e+02 1.615989923587213525e+03 4.933603976487958676e+02
1.750324832000009110e+02 1.605344926395993070e+03 4.897853487064538740e+02
1.750541383000009148e+02 1.594776973754798746e+03 4.862447154363659934e+02
1.750757934000009186e+02 1.584285325487343698e+03 4.827380283753835784e+02
1.750974485000009224e+02 1.573869251491890736e+03 4.792648265000387937e+02
1.751191036000009262e+02 1.563528031560520276e+03 4.758246570393743582e+02
1.751407587000009300e+02 1.553260955202410059e+03 4.724170752926978025e+02
1.751624138000009339e+02 1.543067321471002060e+03 4.690416444521092671e+02
1.751840689000009377e+02 1.532946438794958794e+03 4.656979354296612996e+02
1.752057240000009415e+02 1.522897624812820823e+03 4.623855266890065536e+02
1.752273791000009453e+02 1.512920206211256300e+03 4.591040040814033318e+02
1.752490342000009491e+02 1.503013518566820949e+03 4.558529606859461296e+02
1.752706893000009529e+02 1.493176906191140915e+03 4.526319966538957260e+02
1.752923444000009567e+02 1.483409721979394135e+03 4.494407190569871773e+02
1.753139995000009606e+02 1.473711327262070654e+03 4.462787417395989564e+02
1.753356546000009644e+02 1.464081091659866615e+03 4.431456851746697794e+02
1.753573097000009682e+02 1.454518392941678712e+03 4.400411763232513636e+02
1.753789648000009720e+02 1.445022616885587468e+03 4.369648484975938345e+02
1.754006199000009758e+02 1.435593157142767950e+03 4.339163412276597001e+02
1.754222750000009796e+02 1.426229415104270629e+03 4.308953001309661204e+02
1.754439301000009834e+02 1.416930799770564363e+03 4.279013767856627624e+02
1.754655852000009872e+02 1.407696727623811057e+03 4.249342286067484338e+02
1.754872403000009911e+02 1.398526622502778764e+03 4.219935187253393565e+02
1.755088954000009949e+02 1.389419915480335021e+03 4.190789158709019375e+02
1.755305505000009987e+02 1.380376044743473585e+03 4.161900942563642616e+02
1.755522056000010025e+02 1.371394455475772247e+03 4.133267334660271786e+02
1.755738607000010063e+02 1.362474599742279906e+03 4.104885183461943825e+02
1.755955158000010101e+02 1.353615936376718764e+03 4.076751388984465052e+02
1.756171709000010139e+02 1.344817930870982309e+03 4.048862901754843051e+02
1.756388260000010177e+02 1.336080055266853378e+03 4.021216721794697264e+02
1.756604811000010216e+02 1.327401788049909101e+03 3.993809897627972418e+02
1.756821362000010254e+02 1.318782614045529499e+03 3.966639525312246519e+02
1.757037913000010292e+02 1.310222024317011574e+03 3.939702747493033712e+02
1.757254464000010330e+02 1.301719516065665175e+03 3.912996752480398754e+02
