# Distance                   Potential                   Force
1.900095000000000312e+02 5.559101670408340578e+04 1.838352123099655611e+06
1.900311549000000184e+02 3.764799572553567123e+04 4.163565517250523553e+05
1.900528098000000057e+02 3.123655019111007641e+04 2.151428308527071204e+05
1.900744646999999929e+02 2.749647006621262335e+04 1.399267312790407450e+05
1.900961195999999802e+02 2.492061198172028162e+04 1.016298182681395556e+05
1.901177744999999675e+02 2.298608089533296879e+04 7.877742924661273719e+04
1.901394293999999547e+02 2.145323028960974261e+04 6.374376573762924818e+04
1.901610842999999420e+02 2.019347653440991417e+04 5.317600517971453519e+04
1.901827391999999293e+02 1.913033518470092531e+04 4.538186059651483811e+04
1.902043940999999165e+02 1.821485801682695819e+04 3.941989484297450690e+04
1.902260489999999038e+02 1.741395475383717712e+04 3.472695776022604696e+04
1.902477038999998911e+02 1.670428063580556773e+04 3.094666307244111522e+04
1.902693587999998783e+02 1.606879350240589702e+04 2.784307977051784837e+04
1.902910136999998656e+02 1.549469858037915765e+04 2.525414998609312170e+04
1.903126685999998529e+02 1.497216239150691035e+04 2.306507902711319184e+04
1.903343234999998401e+02 1.449347584220113276e+04 2.119240283245025785e+04
1.903559783999998274e+02 1.405249133863709721e+04 1.957406312934605376e+04
1.903776332999998147e+02 1.364423336362317059e+04 1.816301219024866077e+04
1.903992881999998019e+02 1.326462239522650816e+04 1.692296958297398669e+04
1.904209430999997892e+02 1.291027495196888958e+04 1.582553386538135783e+04
1.904425979999997764e+02 1.257835601850768580e+04 1.484817176005526744e+04
1.904642528999997637e+02 1.226646829064589474e+04 1.397278992126948106e+04
1.904859077999997510e+02 1.197256779839733827e+04 1.318470217609846077e+04
1.905075626999997382e+02 1.169489875184002995e+04 1.247187060645088241e+04
1.905292175999997255e+02 1.143194261254401135e+04 1.182433967484920322e+04
1.905508724999997128e+02 1.118237784027107227e+04 1.123380866263985081e+04
1.905725273999997000e+02 1.094504775309222896e+04 1.069330468190520332e+04
1.905941822999996873e+02 1.071893462591792013e+04 1.019692981440386211e+04
1.906158371999996746e+02 1.050313863719357687e+04 9.739663567283196244e+03
1.906374920999996618e+02 1.029686062055702314e+04 9.317207083113777117e+03
1.906591469999996491e+02 1.009938782999204341e+04 8.925859201802162715e+03
1.906808018999996364e+02 9.910082111846018961e+03 8.562417059621782755e+03
1.907024567999996236e+02 9.728370014324778822e+03 8.224095763405484831e+03
1.907241116999996109e+02 9.553734468056802143e+03 7.908463020235610202e+03
1.907457665999995982e+02 9.385707749342887837e+03 7.613385586108049210e+03
1.907674214999995854e+02 9.223865497363483883e+03 7.336985124525438550e+03
1.907890763999995727e+02 9.067821602618370889e+03 7.077601609447505325e+03
1.908107312999995600e+02 8.917223819630698927e+03 6.833762816693222703e+03
1.908323861999995472e+02 8.771749984951829902e+03 6.604158759308505978e+03
1.908540410999995345e+02 8.631104743590405633e+03 6.387620161033566546e+03
1.908756959999995217e+02 8.495016704526296962e+03 6.183100246218503344e+03
1.908973508999995090e+02 8.363235959982655913e+03 5.989659267758746864e+03
1.909190057999994963e+02 8.235531914392307954e+03 5.806451306723963171e+03
1.909406606999994835e+02 8.111691378099545545e+03 5.632712965655830885e+03
1.909623155999994708e+02 7.991516888237742023e+03 5.467753647485797046e+03
1.909839704999994581e+02 7.874825225267631140e+03 5.310947167794994130e+03
1.910056253999994453e+02 7.761446098622596764e+03 5.161724492831922362e+03
1.910272802999994326e+02 7.651220978998875580e+03 5.019567431706048410e+03
1.910489351999994199e+02 7.544002058217495687e+03 4.884003140321027786e+03
1.910705900999994071e+02 7.439651320404026592e+03 4.754599318318239966e+03
1.910922449999993944e+02 7.338039710586325782e+03 4.630959999671592414e+03
1.911138998999993817e+02 7.239046388784543524e+03 4.512721853470397036e+03
1.911355547999993689e+02 7.142558059328626769e+03 4.399550924525862683e+03
1.911572096999993562e+02 7.048468366541231262e+03 4.291139754273655853e+03
1.911788645999993435e+02 6.956677349112734191e+03 4.187204831444901174e+03
1.912005194999993307e+02 6.867090946505371903e+03 4.087484329479687858e+03
1.912221743999993180e+02 6.779620551585423527e+03 3.991736093932269341e+03
1.912438292999993052e+02 6.694182604419497693e+03 3.899735848383877055e+03
1.912654841999992925e+02 6.610698222803386670e+03 3.811275591814065137e+03
1.912871390999992798e+02 6.529092865635930139e+03 3.726162164127743836e+03
1.913087939999992670e+02 6.449296025719763747e+03 3.644215959709230447e+03
1.913304488999992543e+02 6.371240948976667823e+03 3.565269771571870024e+03
1.913521037999992416e+02 6.294864377417105970e+03 3.489167750970277211e+03
1.913737586999992288e+02 6.220106313509530082e+03 3.415764469306257070e+03
1.913954135999992161e+02 6.146909803861466571e+03 3.344924070842142100e+03
1.914170684999992034e+02 6.075220740357061004e+03 3.276519506180522967e+03
1.914387233999991906e+02 6.004987677099449684e+03 3.210431837713807909e+03
1.914603782999991779e+02 5.936161661684855062e+03 3.146549609321122716e+03
1.914820331999991652e+02 5.868696079492279750e+03 3.084768273519215654e+03
1.915036880999991524e+02 5.802546509810771568e+03 3.024989670079693042e+03
1.915253429999991397e+02 5.737670592748228955e+03 2.967121550824913811e+03
1.915469978999991270e+02 5.674027905973424822e+03 2.911077145924425167e+03
1.915686527999991142e+02 5.611579850438350149e+03 2.856774767545679424e+03
1.915903076999991015e+02 5.550289544312588077e+03 2.804137447177728518e+03
1.916119625999990888e+02 5.490121724436722616e+03 2.753092603353912182e+03
1.916336174999990760e+02 5.431042654668617615e+03 2.703571736856983989e+03
1.916552723999990633e+02 5.373020040556203639e+03 2.655510150804378100e+03
1.916769272999990505e+02 5.316022949823591262e+03 2.608846693288091046e+03
1.916985821999990378e+02 5.260021738205086876e+03 2.563523520487879523e+03
1.917202370999990251e+02 5.204987980204297855e+03 2.519485878392246377e+03
1.917418919999990123e+02 5.150894404393820878e+03 2.476681901452726379e+03
1.917635468999989996e+02 5.097714832905474395e+03 2.435062426666366264e+03
1.917852017999989869e+02 5.045424124791819850e+03 2.394580821731655760e+03
1.918068566999989741e+02 4.993998122967702329e+03 2.355192826056946160e+03
1.918285115999989614e+02 4.943413604465648859e+03 2.316856403519459946e+03
1.918501664999989487e+02 4.893648233761559823e+03 2.279531605979291271e+03
1.918718213999989359e+02 4.844680518947774544e+03 2.243180446647630561e+03
1.918934762999989232e+02 4.796489770549068453e+03 2.207766782493347364e+03
1.919151311999989105e+02 4.749056062793995807e+03 2.173256204948044342e+03
1.919367860999988977e+02 4.702360197169271487e+03 2.139615938237856426e+03
1.919584409999988850e+02 4.656383668098753333e+03 2.106814744731458177e+03
1.919800958999988723e+02 4.611108630601188452e+03 2.074822836748736336e+03
1.920017507999988595e+02 4.566517869792402053e+03 2.043611794324130869e+03
1.920234056999988468e+02 4.522594772108024699e+03 2.013154488463227835e+03
1.920450605999988340e+02 4.479323298132452692e+03 1.983425009471457997e+03
1.920667154999988213e+02 4.436687956928436506e+03 1.954398599970121495e+03
1.920883703999988086e+02 4.394673781769627567e+03 1.926051592247805274e+03
1.921100252999987958e+02 4.353266307185798723e+03 1.898361349625048433e+03
1.921316801999987831e+02 4.312451547237005798e+03 1.871306211537048284e+03
1.921533350999987704e+02 4.272215974939222178e+03 1.844865442063691717e+03
1.921749899999987576e+02 4.232546502769445397e+03 1.819019181658359685e+03
1.921966448999987449e+02 4.193430464183566073e+03 1.793748401847193236e+03
1.922182997999987322e+02 4.154855596085006255e+03 1.769034862688836483e+03
1.922399546999987194e+02 4.116810022186370588e+03 1.744861072801412092e+03
1.922616095999987067e+02 4.079282237210581116e+03 1.721210251778739575e+03
1.922832644999986940e+02 4.042261091881470747e+03 1.698066294831698997e+03
1.923049193999986812e+02 4.005735778657373885e+03 1.675413739503361512e+03
1.923265742999986685e+02 3.969695818164320826e+03 1.653237734318111507e+03
1.923482291999986558e+02 3.934131046288329799e+03 1.631524009235611175e+03
1.923698840999986430e+02 3.899031601889097601e+03 1.610258847790174968e+03
1.923915389999986303e+02 3.864387915099742713e+03 1.589429060805040308e+03
1.924131938999986176e+02 3.830190696179656243e+03 1.569021961579197068e+03
1.924348487999986048e+02 3.796430924889585640e+03 1.549025342451920778e+03
1.924565036999985921e+02 3.763099840360092458e+03 1.529427452657069125e+03
1.924781585999985793e+02 3.730188931426383078e+03 1.510216977385511427e+03
1.924998134999985666e+02 3.697689927404079299e+03 1.491383017979910164e+03
1.925214683999985539e+02 3.665594789282325564e+03 1.472915073191414876e+03
1.925431232999985411e+02 3.633895701311834728e+03 1.454803021432789819e+03
1.925647781999985284e+02 3.602585062966994883e+03 1.437037103967042185e+03
1.925864330999985157e+02 3.571655481262461308e+03 1.419607908974827296e+03
1.926080879999985029e+02 3.541099763405676185e+03 1.402506356447787084e+03
1.926297428999984902e+02 3.510910909768059355e+03 1.385723683858562254e+03
1.926513977999984775e+02 3.481082107158511917e+03 1.369251432561539787e+03
1.926730526999984647e+02 3.451606722383897704e+03 1.353081434881453561e+03
1.926947075999984520e+02 3.422478296082014367e+03 1.337205801849817135e+03
1.927163624999984393e+02 3.393690536813476683e+03 1.321616911551765497e+03
1.927380173999984265e+02 3.365237315399646832e+03 1.306307398048357982e+03
1.927596722999984138e+02 3.337112659494522632e+03 1.291270140841623288e+03
1.927813271999984011e+02 3.309310748379140023e+03 1.276498254851743695e+03
1.928029820999983883e+02 3.281825907967780950e+03 1.261985080877731662e+03
1.928246369999983756e+02 3.254652606015709807e+03 1.247724176514732562e+03
1.928462918999983629e+02 3.227785447518907858e+03 1.233709307502806496e+03
1.928679467999983501e+02 3.201219170296687935e+03 1.219934439483585720e+03
1.928896016999983374e+02 3.174948640748598791e+03 1.206393730142666527e+03
1.929112565999983246e+02 3.148968849777503692e+03 1.193081521716957468e+03
1.929329114999983119e+02 3.123274908871126172e+03 1.179992333847461623e+03
1.929545663999982992e+02 3.097862046334805655e+03 1.167120856759156595e+03
1.929762212999982864e+02 3.072725603668547592e+03 1.154461944750736166e+03
1.929978761999982737e+02 3.047861032081853864e+03 1.142010609977995273e+03
1.930195310999982610e+02 3.023263889140132960e+03 1.129762016515608138e+03
1.930411859999982482e+02 2.998929835536793689e+03 1.117711474682940661e+03
1.930628408999982355e+02 2.974854631985521337e+03 1.105854435620374261e+03
1.930844957999982228e+02 2.951034136227359340e+03 1.094186486103402558e+03
1.931061506999982100e+02 2.927464300147661106e+03 1.082703343582490788e+03
1.931278055999981973e+02 2.904141166998091194e+03 1.071400851437378833e+03
1.931494604999981846e+02 2.881060868719177506e+03 1.060274974435147215e+03
1.931711153999981718e+02 2.858219623359093930e+03 1.049321794381964310e+03
1.931927702999981591e+02 2.835613732584620720e+03 1.038537505959001237e+03
1.932144251999981464e+02 2.813239579280316775e+03 1.027918412733526793e+03
1.932360800999981336e+02 2.791093625232315389e+03 1.017460923336687983e+03
1.932577349999981209e+02 2.769172408893088232e+03 1.007161547799956111e+03
1.932793898999981081e+02 2.747472543223952016e+03 9.970168940426410700e+02
1.933010447999980954e+02 2.725990713612035051e+03 9.870236645033015748e+02
1.933226996999980827e+02 2.704723675858700517e+03 9.771786529082539801e+02
1.933443545999980699e+02 2.683668254236531538e+03 9.674787411707487763e+02
1.933660094999980572e+02 2.662821339612088650e+03 9.579208964147286451e+02
1.933876643999980445e+02 2.642179887631832571e+03 9.485021681173973320e+02
1.934093192999980317e+02 2.621740916968681631e+03 9.392196853651270203e+02
1.934309741999980190e+02 2.601501507626818693e+03 9.300706542175342975e+02
1.934526290999980063e+02 2.581458799302443822e+03 9.210523551747971851e+02
1.934742839999979935e+02 2.561609989798300830e+03 9.121621407435602578e+02
1.934959388999979808e+02 2.541952333489886314e+03 9.033974330969991797e+02
1.935175937999979681e+02 2.522483139841350749e+03 8.947557218248477966e+02
1.935392486999979553e+02 2.503199771969168523e+03 8.862345617693994200e+02
1.935609035999979426e+02 2.484099645251814309e+03 8.778315709436943735e+02
1.935825584999979299e+02 2.465180225983605396e+03 8.695444285282953842e+02
1.936042133999979171e+02 2.446439030071150682e+03 8.613708729432293012e+02
1.936258682999979044e+02 2.427873621770742830e+03 8.533086999918457423e+02
1.936475231999978917e+02 2.409481612465204307e+03 8.453557610734944774e+02
1.936691780999978789e+02 2.391260659478724392e+03 8.375099614620837656e+02
1.936908329999978662e+02 2.373208464928262401e+03 8.297692586477178338e+02
1.937124878999978534e+02 2.355322774610234774e+03 8.221316607387476552e+02
1.937341427999978407e+02 2.337601376921143128e+03 8.145952249216935570e+02
1.937557976999978280e+02 2.320042101810983695e+03 8.071580559766322267e+02
1.937774525999978152e+02 2.302642819768191657e+03 7.998183048457312907e+02
1.937991074999978025e+02 2.285401440835049925e+03 7.925741672527476567e+02
1.938207623999977898e+02 2.268315913652445488e+03 7.854238823713911870e+02
1.938424172999977770e+02 2.251384224532971075e+03 7.783657315405597501e+02
1.938640721999977643e+02 2.234604396561329850e+03 7.713980370245436688e+02
1.938857270999977516e+02 2.217974488721151374e+03 7.645191608163831916e+02
1.939073819999977388e+02 2.201492595047234772e+03 7.577275034826457158e+02
1.939290368999977261e+02 2.185156843802398271e+03 7.510215030479702136e+02
1.939506917999977134e+02 2.168965396678055640e+03 7.443996339177978143e+02
1.939723466999977006e+02 2.152916448017729635e+03 7.378604058377819683e+02
1.939940015999976879e+02 2.137008224062717545e+03 7.314023628884370964e+02
1.940156564999976752e+02 2.121238982219133050e+03 7.250240825136488638e+02
1.940373113999976624e+02 2.105607010345665458e+03 7.187241745817283345e+02
1.940589662999976497e+02 2.090110626061308267e+03 7.125012804777560405e+02
1.940806211999976369e+02 2.074748176072426759e+03 7.063540722260092934e+02
1.941022760999976242e+02 2.059518035518505712e+03 7.002812516413225694e+02
1.941239309999976115e+02 2.044418607335970364e+03 6.942815495082842290e+02
1.941455858999975987e+02 2.029448321639501501e+03 6.883537247872101261e+02
1.941672407999975860e+02 2.014605635120251463e+03 6.824965638458891135e+02
1.941888956999975733e+02 1.999889030460436743e+03 6.767088797161383127e+02
1.942105505999975605e+02 1.985297015763761465e+03 6.709895113742345529e+02
1.942322054999975478e+02 1.970828124001170409e+03 6.653373230443477269e+02
1.942538603999975351e+02 1.956480912471457941e+03 6.597512035241195463e+02
1.942755152999975223e+02 1.942253962276238781e+03 6.542300655315790436e+02
1.942971701999975096e+02 1.928145877808837440e+03 6.487728450726150413e+02
1.943188250999974969e+02 1.914155286256661839e+03 6.433785008282569606e+02
1.943404799999974841e+02 1.900280837116638168e+03 6.380460135610516090e+02
1.943621348999974714e+02 1.886521201723295690e+03 6.327743855398447295e+02
1.943837897999974587e+02 1.872875072789123351e+03 6.275626399823124757e+02
1.944054446999974459e+02 1.859341163956795981e+03 6.224098205146082137e+02
1.944270995999974332e+02 1.845918209362943799e+03 6.173149906475184707e+02
1.944487544999974205e+02 1.832604963213068913e+03 6.122772332685468655e+02
1.944704093999974077e+02 1.819400199367313689e+03 6.072956501493658834e+02
1.944920642999973950e+02 1.806302710936722860e+03 6.023693614680996689e+02
1.945137191999973822e+02 1.793311309889686527e+03 5.974975053459232868e+02
1.945353740999973695e+02 1.780424826668295736e+03 5.926792373974822112e+02
1.945570289999973568e+02 1.767642109814252990e+03 5.879137302946575119e+02
1.945786838999973440e+02 1.754962025604118935e+03 5.832001733432157380e+02
1.946003387999973313e+02 1.742383457693569881e+03 5.785377720719101262e+02
1.946219936999973186e+02 1.729905306770430116e+03 5.739257478336054419e+02
1.946436485999973058e+02 1.717526490216225739e+03 5.693633374180201372e+02
1.946653034999972931e+02 1.705245941775985330e+03 5.648497926757008827e+02
1.946869583999972804e+02 1.693062611236065322e+03 5.603843801528453241e+02
1.947086132999972676e+02 1.680975464109795666e+03 5.559663807366171113e+02
1.947302681999972549e+02 1.668983481330654968e+03 5.515950893106047488e+02
1.947519230999972422e+02 1.657085658952834820e+03 5.472698144200859360e+02
1.947735779999972294e+02 1.645281007858932298e+03 5.429898779467789609e+02
1.947952328999972167e+02 1.633568553474588725e+03 5.387546147927686206e+02
1.948168877999972040e+02 1.621947335489871875e+03 5.345633725733083566e+02
1.948385426999971912e+02 1.610416407587227923e+03 5.304155113182102923e+02
1.948601975999971785e+02 1.598974837175809171e+03 5.263104031815464623e+02
1.948818524999971658e+02 1.587621705131976796e+03 5.222474321593949753e+02
1.949035073999971530e+02 1.576356105545872651e+03 5.182259938153707708e+02
1.949251622999971403e+02 1.565177145473803876e+03 5.142454950136964271e+02
1.949468171999971275e+02 1.554083944696372328e+03 5.103053536595713808e+02
1.949684720999971148e+02 1.543075635482126245e+03 5.064049984466100796e+02
1.949901269999971021e+02 1.532151362356599066e+03 5.025438686111272091e+02
1.950117818999970893e+02 1.521310281876630143e+03 4.987214136930539894e+02
1.950334367999970766e+02 1.510551562409752705e+03 4.949370933032816993e+02
1.950550916999970639e+02 1.499874383918575631e+03 4.911903768972284752e+02
1.950767465999970511e+02 1.489277937750008732e+03 4.874807435544421423e+02
1.950984014999970384e+02 1.478761426429172843e+03 4.838076817640496756e+02
1.951200563999970257e+02 1.468324063457910825e+03 4.801706892158753135e+02
1.951417112999970129e+02 1.457965073117768497e+03 4.765692725970544075e+02
1.951633661999970002e+02 1.447683690277302276e+03 4.730029473939761147e+02
1.951850210999969875e+02 1.437479160203637775e+03 4.694712376993933276e+02
1.952066759999969747e+02 1.427350738378133201e+03 4.659736760245435221e+02
1.952283308999969620e+02 1.417297690316077023e+03 4.625098031161321614e+02
1.952499857999969493e+02 1.407319291390288981e+03 4.590791677780304099e+02
1.952716406999969365e+02 1.397414826658523452e+03 4.556813266975500483e+02
1.952932955999969238e+02 1.387583590694602890e+03 4.523158442761569518e+02
1.953149504999969110e+02 1.377824887423159680e+03 4.489822924644936961e+02
1.953366053999968983e+02 1.368138029957911158e+03 4.456802506015849872e+02
1.953582602999968856e+02 1.358522340443365010e+03 4.424093052581014263e+02
1.953799151999968728e+02 1.348977149899875712e+03 4.391690500835662760e+02
1.954015700999968601e+02 1.339501798071990379e+03 4.359590856573868223e+02
1.954232249999968474e+02 1.330095633279936465e+03 4.327790193436036361e+02
1.954448798999968346e+02 1.320758012274265184e+03 4.296284651492475746e+02
1.954665347999968219e+02 1.311488300093486032e+03 4.265070435862026557e+02
1.954881896999968092e+02 1.302285869924672170e+03 4.234143815364737407e+02
1.955098445999967964e+02 1.293150102966949134e+03 4.203501121207625602e+02
1.955314994999967837e+02 1.284080388297783429e+03 4.173138745702577239e+02
1.955531543999967710e+02 1.275076122742028929e+03 4.143053141015486176e+02
1.955748092999967582e+02 1.266136710743630374e+03 4.113240817945743402e+02
1.955964641999967455e+02 1.257261564239961672e+03 4.083698344735230989e+02
1.956181190999967328e+02 1.248450102538683495e+03 4.054422345906000373e+02
1.956397739999967200e+02 1.239701752197113365e+03 4.025409501125830047e+02
1.956614288999967073e+02 1.231015946904005659e+03 3.996656544100884503e+02
1.956830837999966946e+02 1.222392127363705868e+03 3.968160261494757037e+02
1.957047386999966818e+02 1.213829741182632233e+03 3.939917491873111430e+02
1.957263935999966691e+02 1.205328242757982025e+03 3.911925124673296637e+02
