timestep	potential_energy	temperature
0	-0.07531055808	0
100000	-580.9656982	0.728091836
200000	-827.1130371	0.9146285653
300000	-1032.507568	0.9855737686
400000	-1299.782959	1.018599987
500000	-1613.493042	1.038729668
600000	-1864.648193	1.022147655
700000	-2109.697998	1.018200517
800000	-2294.434082	1.016827106
900000	-2613.333496	1.014027953
1000000	-2792.320068	1.030023217
1100000	-3011.485596	1.009073734
1200000	-3260.203125	1.006604314
1300000	-3553.206543	1.025975347
1400000	-3789.308105	1.008555532
1500000	-3998.012939	1.029838204
1600000	-4190.892578	1.032580614
1700000	-4360.052734	1.019576669
1800000	-4723.584961	1.036093354
1900000	-4969.228516	1.02518177
2000000	-5179.058594	1.033213854
2100000	-5452.49707	1.038799763
2200000	-5696.71582	1.024862528
2300000	-5975.96582	1.036409855
2400000	-6190.073242	1.029286742
2500000	-6501.092773	1.030282855
2600000	-6742.738281	1.016895294
2700000	-6953.947754	1.026548505
2800000	-7138.285156	1.019510984
2900000	-7382.636719	1.005175829
3000000	-7456.530762	1.003535151
3100000	-7680.241699	1.013242602
3200000	-7954.320801	1.031629682
3300000	-8197.113281	1.040367007
3400000	-8346.316406	1.040556192
3500000	-8564.457031	1.019598722
3600000	-8729.834961	1.01353097
3700000	-8973.950195	1.007041216
3800000	-9202.171875	1.015916705
3900000	-9368.137695	1.002760887
4000000	-9653.751953	1.035867453
4100000	-9946.795898	1.042944551
4200000	-10163.83301	1.021498799
4300000	-10342.46289	1.012233019
4400000	-10562.87891	1.021266103
4500000	-10745.00391	1.037420869
4600000	-10885.24414	1.028817177
4700000	-11169.46094	1.017130613
4800000	-11382.70898	1.019755125
4900000	-11537.56152	1.000488281
5000000	-11747.73047	1.016899347
5100000	-12011.46973	1.023202538
5200000	-12133.72266	1.008016706
5300000	-12326.62891	1.024258852
5400000	-12523	1.020694852
5500000	-12749.20898	0.9926691651
5600000	-12955.56738	1.004197717
5700000	-13171.05664	1.014720798
5800000	-13375.57812	0.9999552369
5900000	-13526.57422	1.008711457
6000000	-13846.63672	1.003679633
6100000	-14206.6875	1.007792473
6200000	-14394.87012	1.007950664
6300000	-14659.2207	1.008814335
6400000	-14826.00977	1.040305495
6500000	-15082.34766	1.037594676
6600000	-15223.59277	1.032649279
6700000	-15290.90332	1.022997618
6800000	-15450.14844	1.017859578
6900000	-15733.95703	1.024134874
7000000	-15953.32617	1.009884477
7100000	-16151.16113	1.030010462
7200000	-16481.66016	1.028453112
7300000	-16637.8418	1.026124716
7400000	-16766.30469	1.015717983
7500000	-16963.82812	1.020969748
7600000	-17411.68555	1.040231586
7700000	-17533.69531	1.007259011
7800000	-17778.04297	1.019900799
7900000	-18034.48828	1.017753005
8000000	-18134.58008	1.010844827
8100000	-18298.02539	1.012539029
8200000	-18607.84375	1.02065146
8300000	-18811.51172	1.016299605
8400000	-19145.25391	1.00627327
8500000	-19431.47266	1.000657082
8600000	-19685.05273	1.012021899
8700000	-19897.36523	1.028847575
8800000	-20127.54688	1.029723167
8900000	-20325.04102	1.021977663
9000000	-20487.62891	1.017157793
9100000	-20712.74219	1.012295842
9200000	-20895.35938	1.017230749
9300000	-20935.85742	1.018682361
9400000	-21195.85547	1.019039273
9500000	-21428.35156	1.01496172
9600000	-21587.57422	1.020355105
9700000	-21823.95312	1.023291111
9800000	-22124.92969	1.028333306
9900000	-22421.55859	1.007902384
10000000	-22671.87695	1.020834088
10100000	-22939.45312	1.012234449
10200000	-23151.59766	1.015955091
10300000	-23359.76562	1.016862988
10400000	-23637.92578	1.01480794
10500000	-23980.88281	1.016905665
10600000	-24311.50977	1.02156353
10700000	-24430.85156	1.011314034
10800000	-24592.47656	1.011719584
10900000	-24975.73047	1.022908449
11000000	-25171.11719	1.018467903
11100000	-25368.30664	1.013988376
11200000	-25481.11133	1.004763842
11300000	-25752.80469	1.014674664
11400000	-26054.44531	1.028900743
11500000	-26348.67578	1.021899104
11600000	-26587.75195	1.020549297
11700000	-26892.14844	1.026109695
11800000	-27046.47656	1.027254105
11900000	-27240.17188	1.016392827
12000000	-27591.91016	1.031540155
12100000	-27818.22266	1.022835732
12200000	-27932.85938	1.027043343
12300000	-28148.60156	1.016218662
12400000	-28537.57031	1.020583034
12500000	-28709.14453	1.019680262
12600000	-28866.34766	1.00927031
12700000	-29196.28125	1.019653916
12800000	-29493.55664	1.028917313
12900000	-29618.13281	1.031329513
13000000	-29878.53516	1.016135931
13100000	-30374.16797	1.027547359
13200000	-30593.14844	1.019732833
13300000	-30705.54297	1.030462861
13400000	-30781.81055	1.025728703
13500000	-30945.99219	1.011051178
13600000	-31416.73828	1.019033313
13700000	-31603.69922	1.028045893
13800000	-31891.42188	1.019368649
13900000	-32220.74609	1.016185284
14000000	-32567.80664	1.015292645
14100000	-32944.81641	1.023820758
14200000	-33106.93359	1.017261863
14300000	-33442.93359	1.029857039
14400000	-33714.52344	1.036715746
14500000	-33765.08984	1.019355059
14600000	-34036.04688	1.013085723
14700000	-34252.00781	1.012764096
14800000	-34628.16016	1.019261599
14900000	-34915.71094	1.0096668
15000000	-35251.36719	0.9908969998
15100000	-35450.36328	1.010980844
15200000	-35612.42969	1.022950411
15300000	-35819.00391	1.035873175
15400000	-36121.77734	1.016930938
15500000	-36394.02344	1.024098516
15600000	-36838.23828	1.015298963
15700000	-37168.97266	1.018240333
15800000	-37575.34375	1.020027041
15900000	-37762.77344	1.016630054
16000000	-38058.65625	1.020587683
16100000	-38517.0625	1.039746404
16200000	-38675.27344	1.008645177
16300000	-39014.57812	1.02234745
16400000	-39379.50391	1.033980012
16500000	-39579.00391	1.012423158
16600000	-39916.67969	1.020220637
16700000	-40098.63672	1.020764828
16800000	-40577.02344	1.016392231
16900000	-40863.70312	1.027718425
17000000	-41085.59375	1.011029005
17100000	-41690.44531	1.030889273
17200000	-41908.10938	1.022265673
17300000	-42374.76172	1.027534962
17400000	-42607.01562	1.031008482
17500000	-42745.54297	1.029268503
17600000	-43178.13281	1.037414789
17700000	-43659.57031	1.040881395
17800000	-44010.85156	1.041984677
17900000	-44169.69922	1.003027439
18000000	-44543.82031	1.023286939
18100000	-44772.99219	1.035426021
18200000	-44995.13281	1.032797456
18300000	-45230.66797	1.02561295
18400000	-45503.96875	1.018731952
18500000	-45759.94531	1.037664533
18600000	-46040.91406	1.027980566
18700000	-46166.66797	1.016761184
18800000	-46479.92969	1.035467982
18900000	-46857.13281	1.03043294
19000000	-47187.98438	1.021624923
19100000	-47450.125	1.026074767
19200000	-47659.28906	1.014475584
19300000	-48002.51562	1.027966738
19400000	-48020.75781	1.026611209
19500000	-48266.91406	1.019946933
19600000	-48494.35938	1.010509968
19700000	-48710.46094	1.0155828
19800000	-49206.66016	1.02489686
19900000	-49550.54297	1.018772721
20000000	-49886.03125	1.014127135
20100000	-50481.21875	1.028769135
20200000	-50745.67188	1.023045063
20300000	-51015.58984	1.020740151
20400000	-51282.64453	1.013391018
20500000	-51593.20703	1.015887976
20600000	-52033.33203	1.029086947
20700000	-52048.91406	1.025228858
20800000	-52403.52344	1.024713159
20900000	-52682.02344	1.044898987
21000000	-53076.50781	1.033424377
21100000	-53405.60156	1.038228273
21200000	-53737.46094	1.023589969
21300000	-54029.73438	1.014066577
21400000	-54487.03125	1.024754286
21500000	-54852.21875	1.029319406
21600000	-55345.32812	1.045579672
21700000	-55752.85156	1.04007709
21800000	-56169.03125	1.01902473
21900000	-56417.53516	1.025238276
22000000	-56782.375	1.02862072
22100000	-57309.11719	1.044870377
22200000	-57790.47656	1.042849302
22300000	-58110.90625	1.023050666
22400000	-58510.03906	1.037396789
22500000	-58793.18359	1.029586315
22600000	-59161.32031	1.020442247
22700000	-59363.45703	1.018203378
22800000	-59538.19141	1.006534576
22900000	-60063.70312	1.029670596
23000000	-60256.57812	1.029265285
23100000	-60767.64844	1.02267158
23200000	-60797.82031	1.02258873
23300000	-61012.82812	1.015098929
23400000	-61260.73828	1.008137345
23500000	-61649.71875	1.012474895
23600000	-62009.88281	1.027578354
23700000	-62221.73828	1.02464211
23800000	-62556.78906	1.030324459
23900000	-62803.03125	1.02015543
24000000	-63024.47656	1.039573431
24100000	-63427.32812	1.021264195
24200000	-63543.76953	1.021421313
24300000	-64091.30469	1.039501905
24400000	-64480.33203	1.037161469
24500000	-64850.91797	1.026567936
24600000	-65171.85938	1.033565283
24700000	-65596.05469	1.046450973
24800000	-65766.78906	1.022561073
24900000	-66165.9375	1.024977088
25000000	-66629.57031	1.030412555
25100000	-66783.0625	1.039529204
25200000	-66895.42188	1.018994689
25300000	-67336.76562	1.028462887
25400000	-67622.92969	1.023449063
25500000	-67930.97656	1.038195848
25600000	-68101.48438	1.036616921
25700000	-68784.625	1.050838709
25800000	-68828.10156	1.042283893
25900000	-69185.07031	1.046852827
26000000	-69395.84375	1.028266311
26100000	-69764.35156	1.048009276
26200000	-70288.17188	1.037401915
26300000	-70628.5625	1.015038848
26400000	-70939.375	1.011965275
26500000	-71375.32812	1.028158545
26600000	-71603.11719	1.021535397
26700000	-72069.83594	1.035967469
26800000	-72547.36719	1.045817018
26900000	-72800.03125	1.025806546
27000000	-73173.20312	1.035341024
27100000	-73528.05469	1.032037973
27200000	-73751.75	1.041893125
27300000	-73793.5	1.024121642
27400000	-73908.8125	1.014523625
27500000	-74323.01562	1.020679474
27600000	-74793.92188	1.039517879
27700000	-75058.4375	1.044987559
27800000	-75183.30469	1.017324924
27900000	-75616.84375	1.060969949
28000000	-76033.41406	1.04615283
28100000	-76129.67188	1.052983403
28200000	-76440.11719	1.030155659
28300000	-76969.99219	1.034060836
28400000	-77383.86719	1.02969265
28500000	-77804.23438	1.029363155
28600000	-78296.69531	1.026803136
28700000	-78618.64062	1.015435934
28800000	-78742.01562	1.028736591
28900000	-78889.25	1.036275029
29000000	-79075.79688	1.0106287
29100000	-79565.80469	1.029612184
29200000	-79895.45312	1.036058903
29300000	-80087.625	1.03066349
29400000	-80273.88281	1.009889126
29500000	-80988.14062	1.023275137
29600000	-81159.39062	1.024160266
29700000	-81256.88281	1.021905303
29800000	-81743.95312	1.02862823
29900000	-81856.60938	1.029015779
30000000	-82148.13281	1.026445627
30100000	-82575.42188	1.028538942
30200000	-82841.75	1.01845932
30300000	-83137.45312	1.028639913
30400000	-83444.53906	1.02573657
30500000	-83975.125	1.023986697
30600000	-84396.17969	1.028847814
30700000	-84520.75781	1.023598075
30800000	-84865.78125	1.027286172
30900000	-84954.79688	1.013107419
31000000	-85195.07031	0.9906002879
31100000	-85776.17969	1.021364927
31200000	-85977.41406	1.003947854
31300000	-86193.00781	1.023840547
31400000	-86416.48438	1.023613453
31500000	-86479.70312	1.03971982
31600000	-86848.32812	1.018304944
31700000	-87002.3125	1.008737087
31800000	-87314.5	1.020782828
31900000	-87565.07031	1.012227654
32000000	-87949.15625	1.029335141
32100000	-87960.34375	1.013890147
32200000	-88237.8125	1.028248429
32300000	-88442.96875	1.041831732
32400000	-88786.78906	1.019655943
32500000	-88825.13281	1.004044175
32600000	-89463.21875	1.028766274
32700000	-89557.39062	1.01590085
32800000	-89799.01562	1.023416877
32900000	-89988.78125	1.027537227
33000000	-90100.07812	1.01897943
33100000	-90318.64062	1.025021672
33200000	-90365.67969	1.021868706
33300000	-90973.28125	1.03694272
33400000	-91274.20312	1.048302293
33500000	-91461.26562	1.044029117
33600000	-91647.74219	1.018910408
33700000	-91959.28125	1.014568925
33800000	-92300.28906	1.010713577
33900000	-92591.5	1.02342689
34000000	-92720.20312	1.022580266
34100000	-93209.17188	1.030263186
34200000	-93431.78125	1.014396191
34300000	-93781.10156	1.026793242
34400000	-93874.54688	1.022545218
34500000	-94105.48438	1.020509601
34600000	-94443.95312	1.030126929
34700000	-94873.96875	1.022426128
34800000	-95100.82812	1.017001152
34900000	-95296.29688	1.020888448
35000000	-95553.01562	1.013650775
35100000	-95742.96875	1.016906857
35200000	-95796.6875	1.00808382
35300000	-96021.33594	1.006279826
35400000	-96243.60156	1.014521599
35500000	-96632.51562	1.026724815
35600000	-96891.6875	1.03856492
35700000	-96976.95312	1.029059052
35800000	-97138.29688	1.02611804
35900000	-97310.47656	1.025711775
36000000	-97507.4375	1.021649599
36100000	-97780.34375	1.032805085
36200000	-97916.63281	1.02008462
36300000	-98130.34375	1.016481161
36400000	-98362.125	1.005075693
36500000	-98606.58594	1.007085681
36600000	-98821.17188	0.9910851717
36700000	-99097.14062	1.003431797
36800000	-99182.65625	0.9994511008
36900000	-99627.64844	1.029248595
37000000	-99786.9375	1.018380404
37100000	-100154.5938	1.031167626
37200000	-100273.0625	1.026022673
37300000	-100368.5938	1.023068666
37400000	-100381.9844	1.005059481
37500000	-100697.375	1.015257716
37600000	-100819.2656	1.026813865
37700000	-101089.3594	1.016850829
37800000	-101146.0781	1.02234602
37900000	-101309.6875	1.025909424
38000000	-101685.7969	1.02302742
38100000	-101875.8594	1.026821733
38200000	-102083.8125	1.025886536
38300000	-102146.0391	1.014056325
38400000	-102405.6953	1.022862911
38500000	-102629.25	1.025973678
38600000	-102894.875	1.024081945
38700000	-103021.8438	1.029348493
38800000	-103200.625	1.026851654
38900000	-103311.5156	1.027960896
39000000	-103900.5234	1.029672027
39100000	-104014.5469	1.012986064
39200000	-104540.6406	1.024857283
39300000	-104532.4297	1.0230937
39400000	-104584.8906	1.013783336
39500000	-104823.4375	1.034587741
39600000	-104980.875	1.018602014
39700000	-105327.7188	1.013695478
39800000	-105533.0781	1.017130256
39900000	-105549.7031	1.016993999
40000000	-105750.6094	1.018281698
40100000	-105931.5312	1.01564157
40200000	-106060.4375	1.022619247
40300000	-106325.4766	1.032177567
40400000	-106240.1875	1.024996758
40500000	-106147.875	1.00701952
40600000	-106462.7422	1.016546607
40700000	-106444.8516	1.026580572
40800000	-106614.1719	1.042477131
40900000	-106858.9609	1.032812834
41000000	-107158.0547	1.034605384
41100000	-107178.6562	1.027301073
41200000	-107340.3047	1.028956652
41300000	-107661.0469	1.011571646
41400000	-107873	1.014514923
41500000	-107758.6875	1.012675405
41600000	-107939.2812	1.02389586
41700000	-107984.2031	1.015995622
41800000	-108208.6641	1.015723825
41900000	-108351.9219	1.02328968
42000000	-108449.9688	1.014514208
42100000	-108779.4844	1.024149776
42200000	-108733.8906	1.017856479
42300000	-108797	1.000796318
42400000	-108885.7422	1.02139616
42500000	-108996.1406	1.002065659
42600000	-109257.7422	1.011286139
42700000	-109463.125	1.021461964
42800000	-109556.4922	1.008891225
42900000	-109534.9531	1.00744617
43000000	-109570.2188	1.018913746
43100000	-109705.2812	1.016793966
43200000	-110072.6953	1.02163887
43300000	-110067.8438	1.008266091
43400000	-110257.7812	0.9907700419
43500000	-110558.4766	1.005380392
43600000	-110752.4844	1.003009558
43700000	-110833.5156	1.005145788
43800000	-110934.7031	1.000997663
43900000	-110808.5156	1.00112617
44000000	-111101.6172	0.99741745
44100000	-111212.3281	1.009198546
44200000	-111290.4219	1.012752891
44300000	-111527.2422	1.016366243
44400000	-111449.9609	1.021524429
44500000	-111379.7812	1.012460709
44600000	-111670.1875	1.017414808
44700000	-111683.125	1.015758157
44800000	-111900.7188	1.007079363
44900000	-111834.8438	1.017360449
45000000	-111829.4297	1.012867689
45100000	-112004.2266	1.023412228
45200000	-112172.8281	1.023728013
45300000	-112355.1172	1.030381083
45400000	-112379.3516	1.017603159
45500000	-112604	1.024675488
45600000	-112510.8516	1.005544662
45700000	-112604.5156	1.003916621
45800000	-113013.0156	1.020869255
45900000	-113000.8594	1.040558815
46000000	-112778.125	1.014800549
46100000	-113179.3281	1.025883317
46200000	-113455.6797	1.030047297
46300000	-113516.2031	1.012121439
46400000	-113848.1094	1.008319497
46500000	-113825.7891	1.020829439
46600000	-113659.875	1.005143166
46700000	-113924.7422	1.015618682
46800000	-114019.2812	1.020052791
46900000	-114009.3125	1.005135179
47000000	-114129.1875	1.007363081
47100000	-114100.1719	1.019661069
47200000	-114254.9062	1.021739483
47300000	-114017.3281	1.00893414
47400000	-114065.6797	1.018348575
47500000	-114083.4531	0.9991947412
47600000	-113970.3594	1.000015259
47700000	-114486.7734	0.9990013242
47800000	-114527.5625	1.015680552
47900000	-114650.7969	1.013423324
48000000	-114874.9453	1.011667609
48100000	-114932.7812	1.011499405
48200000	-114997.7656	1.00659883
48300000	-115105.8672	1.007862091
48400000	-115121.8047	1.001124024
48500000	-115008.4219	0.9930551052
48600000	-115215.7656	1.000491261
48700000	-115384.9062	1.001029134
48800000	-115584.5938	0.996512711
48900000	-115638.3281	1.006292224
49000000	-115527.8828	1.00152266
49100000	-115741.6875	0.9866291881
49200000	-115713.6094	0.9943182468
49300000	-115999.2109	1.015879869
49400000	-116009.1641	1.011378407
49500000	-116013.7188	1.012939453
49600000	-116402.0781	1.006603241
49700000	-116407.1094	1.016267896
49800000	-116504.4375	1.019182801
49900000	-116687.9844	1.021975875
50000000	-116769.4219	1.027147293
50100000	-116747.7266	1.007394791
50200000	-116995.6641	1.007630944
50300000	-116906.0234	1.000088096
50400000	-117046.3984	1.01599133
50500000	-117260.375	1.002657294
50600000	-117032.4375	1.006479502
50700000	-117257.8672	1.012026906
50800000	-117516.25	1.014081717
50900000	-117405.8125	0.9882424474
51000000	-117841.7188	1.019912243
51100000	-117690	0.9960513115
51200000	-117849.0156	0.9975910783
51300000	-117966.2891	1.010076046
51400000	-117946.5	1.006906152
51500000	-118104.7188	1.011514068
51600000	-118027.2031	1.000163198
51700000	-118176.7031	1.021145701
51800000	-118157.2812	1.014375448
51900000	-118138.6406	1.018484473
52000000	-118124.0781	1.0344522
52100000	-118043.4688	1.009104133
52200000	-118175.0312	1.02404511
52300000	-118345.9922	1.014650822
52400000	-118692.0781	1.031636119
52500000	-118561.2734	1.02284503
52600000	-118445.6172	0.9874994755
52700000	-118668.0156	1.020411015
52800000	-118663.0781	1.007082582
52900000	-118827.5469	1.011257291
53000000	-118528.0312	1.006303191
53100000	-118563.0781	1.000843525
53200000	-118821.1094	1.007252812
53300000	-118899.4219	1.032693267
53400000	-118648.6172	1.008216977
53500000	-118916.5234	1.032407403
53600000	-119257.3047	1.025032163
53700000	-119046.375	1.003280044
53800000	-119239.7656	1.001497746
53900000	-119279.7031	0.998226583
54000000	-119533.5938	1.010935545
54100000	-119558.4609	1.011345625
54200000	-119704.1094	1.018431187
54300000	-119855.2422	1.017988205
54400000	-119853.2109	1.027315974
54500000	-119820.7344	1.00353694
54600000	-119904.0391	1.001031995
54700000	-120233.625	1.018970966
54800000	-120275.0938	1.015583992
54900000	-120265.1094	1.015435934
55000000	-120400.9922	1.00766027
55100000	-120528.2734	1.008596182
55200000	-120696.8906	1.009945154
55300000	-120564.4062	1.001251101
55400000	-120689.8516	0.993498683
55500000	-120811.4062	0.9878622293
55600000	-120889.5625	1.003661036
55700000	-121094.2188	1.019621968
55800000	-120899.6406	0.9955564737
55900000	-121086.2188	1.003850937
56000000	-121281.5781	1.002100229
56100000	-121240.5391	0.9979321957
56200000	-121299	0.9991610646
56300000	-121248.9922	1.008832335
56400000	-121479.1953	1.025245786
56500000	-121542.4453	1.013637304
56600000	-121699.1172	1.021421552
56700000	-121646.1406	1.023781061
56800000	-121673.2344	1.003657341
56900000	-121767.0625	1.001984239
57000000	-121973.3047	0.9959940314
57100000	-121901.3047	0.9968934655
57200000	-121826.5	1.004102707
57300000	-122036.7969	1.016058564
57400000	-121893.9688	1.022181273
57500000	-121942.8359	1.000501275
57600000	-122043.7656	1.004639149
57700000	-122146.7109	1.006073594
57800000	-122142.6562	1.006574512
57900000	-122355.7344	1.005571604
58000000	-122383.5938	1.01239419
58100000	-122182.4688	0.9955990911
58200000	-122307.3281	1.000184894
58300000	-122557.0547	0.9949735999
58400000	-122385.5312	0.9879395962
58500000	-122941.5469	1.015423417
58600000	-122696.0156	0.989808321
58700000	-122757.3047	1.01048553
58800000	-122589.3828	1.009572029
58900000	-122550.5625	1.005152106
59000000	-122695.9375	0.9930042028
59100000	-122657.875	0.9912685752
59200000	-122677.6016	0.9917367101
59300000	-122921.5938	1.014692426
