# Distance                   Potential                   Force
2.100105000000000359e+02 5.998995390470953862e+04 1.792976542623091722e+06
2.100317999000000384e+02 4.177125325214782060e+04 4.486230001320026931e+05
2.100530998000000409e+02 3.490743553589725343e+04 2.362493336113350233e+05
2.100743997000000434e+02 3.085065668082659249e+04 1.549088267650587368e+05
2.100956996000000458e+02 2.803912464712250585e+04 1.130292314623618586e+05
2.101169995000000483e+02 2.591963734461250351e+04 8.787676807951292722e+04
2.101382994000000508e+02 2.423592909597298421e+04 7.125960750962354359e+04
2.101595993000000533e+02 2.284957812026684769e+04 5.954359436630263372e+04
2.101808992000000558e+02 2.167786855568405372e+04 5.088316637745015760e+04
2.102021991000000583e+02 2.066768537973763887e+04 4.424701502317424456e+04
2.102234990000000607e+02 1.978302850756864791e+04 3.901611911649549438e+04
2.102447989000000632e+02 1.899844830244662080e+04 3.479767567859472183e+04
2.102660988000000657e+02 1.829533508493613772e+04 3.133107565658626845e+04
2.102873987000000682e+02 1.765969796728655638e+04 2.843698553613722106e+04
2.103086986000000707e+02 1.708077170012711940e+04 2.598817943309361726e+04
2.103299985000000731e+02 1.655010833840011401e+04 2.389203440778304503e+04
2.103512984000000756e+02 1.606096531343291281e+04 2.207960477271961645e+04
2.103725983000000781e+02 1.560788148027056741e+04 2.049856998408158688e+04
2.103938982000000806e+02 1.518637618591676437e+04 1.910854865331799010e+04
2.104151981000000831e+02 1.479273108022627275e+04 1.787790474324185561e+04
2.104364980000000855e+02 1.442382892943542174e+04 1.678152150482119760e+04
2.104577979000000880e+02 1.407703254165558610e+04 1.579921874922829375e+04
2.104790978000000905e+02 1.375009245729823488e+04 1.491460732271678899e+04
2.105003977000000930e+02 1.344107562005786713e+04 1.411424662557905867e+04
2.105216976000000955e+02 1.314830958657882547e+04 1.338701595850272315e+04
2.105429975000000979e+02 1.287033840518064608e+04 1.272363920079615127e+04
2.105642974000001004e+02 1.260588736912592685e+04 1.211632106891171497e+04
2.105855973000001029e+02 1.235383459764003783e+04 1.155846567193188457e+04
2.106068972000001054e+02 1.211318792603996917e+04 1.104445652015861560e+04
2.106281971000001079e+02 1.188306596471664307e+04 1.056948294745203384e+04
2.106494970000001103e+02 1.166268246137653296e+04 1.012940195934477742e+04
2.106707969000001128e+02 1.145133330274048967e+04 9.720627385384603258e+03
2.106920968000001153e+02 1.124838564182309892e+04 9.340040267897395097e+03
2.107133967000001178e+02 1.105326874947057877e+04 8.984915908139246312e+03
2.107346966000001203e+02 1.086546627415790499e+04 8.652864081860592705e+03
2.107559965000001228e+02 1.068450965931351129e+04 8.341779744067693173e+03
2.107772964000001252e+02 1.050997251779186990e+04 8.049802146518870359e+03
2.107985963000001277e+02 1.034146580226922742e+04 7.775280746812262805e+03
2.108198962000001302e+02 1.017863364101483785e+04 7.516746634198326319e+03
2.108411961000001327e+02 1.002114973269408620e+04 7.272888462690544657e+03
2.108624960000001352e+02 9.868714213085142546e+03 7.042532087047904497e+03
2.108837959000001376e+02 9.721050921956411912e+03 6.824623256645695619e+03
2.109050958000001401e+02 9.577905010707607289e+03 6.618212847092662741e+03
2.109263957000001426e+02 9.439040841367135727e+03 6.422444207822296448e+03
2.109476956000001451e+02 9.304240135660444139e+03 6.236542281864713004e+03
2.109689955000001476e+02 9.173300339499637630e+03 6.059804216174217800e+03
2.109902954000001500e+02 9.046033173693367644e+03 5.891591230722066030e+03
2.110115953000001525e+02 8.922263346170295335e+03 5.731321554718860170e+03
2.110328952000001550e+02 8.801827404732843206e+03 5.578464270846666295e+03
2.110541951000001575e+02 8.684572712455870715e+03 5.432533934835852961e+03
2.110754950000001600e+02 8.570356530432931322e+03 5.293085859342130789e+03
2.110967949000001624e+02 8.459045194742488093e+03 5.159711968826041812e+03
2.111180948000001649e+02 8.350513376333421547e+03 5.032037146764241697e+03
2.111393947000001674e+02 8.244643414071519146e+03 4.909716008625724498e+03
2.111606946000001699e+02 8.141324712496334541e+03 4.792430044100397026e+03
2.111819945000001724e+02 8.040453196949575613e+03 4.679885080449477755e+03
2.112032944000001748e+02 7.941930819684434027e+03 4.571809025860080510e+03
2.112245943000001773e+02 7.845665111376517416e+03 4.467949857573277768e+03
2.112458942000001798e+02 7.751568773153253460e+03 4.368073824513186082e+03
2.112671941000001823e+02 7.659559304857538336e+03 4.271963838333440435e+03
2.112884940000001848e+02 7.569558665778076829e+03 4.179418030347168497e+03
2.113097939000001873e+02 7.481492964525997195e+03 4.090248454823467455e+03
2.113310938000001897e+02 7.395292175124744062e+03 4.004279921704685421e+03
2.113523937000001922e+02 7.310889876717326842e+03 3.921348943996121761e+03
2.113736936000001947e+02 7.228223014588475962e+03 3.841302786962757637e+03
2.113949935000001972e+02 7.147231680455746755e+03 3.763998607885006095e+03
2.114162934000001997e+02 7.067858910207830377e+03 3.689302676518398584e+03
2.114375933000002021e+02 6.990050497465291301e+03 3.617089667604481292e+03
2.114588932000002046e+02 6.913754821511819500e+03 3.547242017820462024e+03
2.114801931000002071e+02 6.838922688296384877e+03 3.479649340457230210e+03
2.115014930000002096e+02 6.765507183341146629e+03 3.414207891899262449e+03
2.115227929000002121e+02 6.693463535508665700e+03 3.350820084662636418e+03
2.115440928000002145e+02 6.622748990687269725e+03 3.289394042343031288e+03
2.115653927000002170e+02 6.553322694546704042e+03 3.229843192346547312e+03
2.115866926000002195e+02 6.485145583599115525e+03 3.172085892732370212e+03
2.116079925000002220e+02 6.418180283874339693e+03 3.116045089896907939e+03
2.116292924000002245e+02 6.352391016584186218e+03 3.061648004181064152e+03
2.116505923000002269e+02 6.287743510209302258e+03 3.008825840792546842e+03
2.116718922000002294e+02 6.224204918494679077e+03 2.957513523708797493e+03
2.116931921000002319e+02 6.161743743887038363e+03 2.907649450467944916e+03
2.117144920000002344e+02 6.100329765989537918e+03 2.859175265969413886e+03
2.117357919000002369e+02 6.039933974647183277e+03 2.812035653595607528e+03
2.117570918000002393e+02 5.980528507310496025e+03 2.766178142134727750e+03
2.117783917000002418e+02 5.922086590355696899e+03 2.721552927134764104e+03
2.117996916000002443e+02 5.864582484067436781e+03 2.678112705452215323e+03
2.118209915000002468e+02 5.807991431015101625e+03 2.635812521878260668e+03
2.118422914000002493e+02 5.752289607576403796e+03 2.594609626831528658e+03
2.118635913000002517e+02 5.697454078382459556e+03 2.554463344201759355e+03
2.118848912000002542e+02 5.643462753477090700e+03 2.515334948513916515e+03
2.119061911000002567e+02 5.590294348000054015e+03 2.477187550658759392e+03
2.119274910000002592e+02 5.537928344219053542e+03 2.439985991504512185e+03
2.119487909000002617e+02 5.486344955749518704e+03 2.403696742765994713e+03
2.119700908000002642e+02 5.435525093813610511e+03 2.368287814563122083e+03
2.119913907000002666e+02 5.385450335401646043e+03 2.333728669150744281e+03
2.120126906000002691e+02 5.336102893209586910e+03 2.299990140346956196e+03
2.120339905000002716e+02 5.287465587235832572e+03 2.267044358227822613e+03
2.120552904000002741e+02 5.239521817929517056e+03 2.234864678693349560e+03
2.120765903000002766e+02 5.192255540790367377e+03 2.203425617542905457e+03
2.120978902000002790e+02 5.145651242327687214e+03 2.172702788728607175e+03
2.121191901000002815e+02 5.099693917292793230e+03 2.142672846482595105e+03
2.121404900000002840e+02 5.054369047105351456e+03 2.113313431039074658e+03
2.121617899000002865e+02 5.009662579399831884e+03 2.084603117694665343e+03
2.121830898000002890e+02 4.965560908623574505e+03 2.056521368971193169e+03
2.122043897000002914e+02 4.922050857622629337e+03 2.029048489663876580e+03
2.122256896000002939e+02 4.879119660156155078e+03 2.002165584574931245e+03
2.122469895000002964e+02 4.836754944284142766e+03 1.975854518748280498e+03
2.122682894000002989e+02 4.794944716577007966e+03 1.950097880035279104e+03
2.122895893000003014e+02 4.753677347099096551e+03 1.924878943834438587e+03
2.123108892000003038e+02 4.712941555121407873e+03 1.900181639860025371e+03
2.123321891000003063e+02 4.672726395521714039e+03 1.875990520805366032e+03
2.123534890000003088e+02 4.633021245833077955e+03 1.852290732776665664e+03
2.123747889000003113e+02 4.593815793904319435e+03 1.829067987382350111e+03
2.123960888000003138e+02 4.555100026138262365e+03 1.806308535371349308e+03
2.124173887000003162e+02 4.516864216275923354e+03 1.783999141721488741e+03
2.124386886000003187e+02 4.479098914696641259e+03 1.762127062086266960e+03
2.124599885000003212e+02 4.441794938206198822e+03 1.740680020514831313e+03
2.124812884000003237e+02 4.404943360286682946e+03 1.719646188366015167e+03
2.125025883000003262e+02 4.368535501783371728e+03 1.699014164342822824e+03
2.125238882000003287e+02 4.332562922005582550e+03 1.678772955578881692e+03
2.125451881000003311e+02 4.297017410219764315e+03 1.658911959713114584e+03
2.125664880000003336e+02 4.261890977514352926e+03 1.639420947893220273e+03
2.125877879000003361e+02 4.227175849017321525e+03 1.620290048652596397e+03
2.126090878000003386e+02 4.192864456448241981e+03 1.601509732609074490e+03
2.126303877000003411e+02 4.158949430987990127e+03 1.583070797937251200e+03
2.126516876000003435e+02 4.125423596450025798e+03 1.564964356569421170e+03
2.126729875000003460e+02 4.092279962738219183e+03 1.547181821083063369e+03
2.126942874000003485e+02 4.059511719577008080e+03 1.529714892235559319e+03
2.127155873000003510e+02 4.027112230500498299e+03 1.512555547109383497e+03
2.127368872000003535e+02 3.995075027087882972e+03 1.495696027833353355e+03
2.127581871000003559e+02 3.963393803433235007e+03 1.479128830847716245e+03
2.127794870000003584e+02 3.932062410838452706e+03 1.462846696682885295e+03
2.128007869000003609e+02 3.901074852718689726e+03 1.446842600223540103e+03
2.128220868000003634e+02 3.870425279710208542e+03 1.431109741431547718e+03
2.128433867000003659e+02 3.840107984971208680e+03 1.415641536502814006e+03
2.128646866000003683e+02 3.810117399666553410e+03 1.400431609434698885e+03
2.128859865000003708e+02 3.780448088627987090e+03 1.385473783982042278e+03
2.129072864000003733e+02 3.751094746181679966e+03 1.370762075981179578e+03
2.129285863000003758e+02 3.722052192135568930e+03 1.356290686022559612e+03
2.129498862000003783e+02 3.693315367919185974e+03 1.342053992453739966e+03
2.129711861000003807e+02 3.664879332869184054e+03 1.328046544695590910e+03
2.129924860000003832e+02 3.636739260654024292e+03 1.314263056855573495e+03
2.130137859000003857e+02 3.608890435831666309e+03 1.300698401622870961e+03
2.130350858000003882e+02 3.581328250534424569e+03 1.287347604431058699e+03
2.130563857000003907e+02 3.554048201275432348e+03 1.274205837874793588e+03
2.130776856000003932e+02 3.527045885871427345e+03 1.261268416367801137e+03
2.130989855000003956e+02 3.500317000476885369e+03 1.248530791030134651e+03
2.131202854000003981e+02 3.473857336724670859e+03 1.235988544793382744e+03
2.131415853000004006e+02 3.447662778968765906e+03 1.223637387713105909e+03
2.131628852000004031e+02 3.421729301624693107e+03 1.211473152478408338e+03
2.131841851000004056e+02 3.396052966603587265e+03 1.199491790109081649e+03
2.132054850000004080e+02 3.370629920835998746e+03 1.187689365831296982e+03
2.132267849000004105e+02 3.345456393881721397e+03 1.176062055123302798e+03
2.132480848000004130e+02 3.320528695622092528e+03 1.164606139923064120e+03
2.132693847000004155e+02 3.295843214031421667e+03 1.153318004990182317e+03
2.132906846000004180e+02 3.271396413024352114e+03 1.142194134414879954e+03
2.133119845000004204e+02 3.247184830376045738e+03 1.131231108267185618e+03
2.133332844000004229e+02 3.223205075712307462e+03 1.120425599379835148e+03
2.133545843000004254e+02 3.199453828566897300e+03 1.109774370258739509e+03
2.133758842000004279e+02 3.175927836503293292e+03 1.099274270115184891e+03
2.133971841000004304e+02 3.152623913298466505e+03 1.088922232014236215e+03
2.134184840000004328e+02 3.129538937186167004e+03 1.078715270134102184e+03
2.134397839000004353e+02 3.106669849157480712e+03 1.068650477131484877e+03
2.134610838000004378e+02 3.084013651316392497e+03 1.058725021608179986e+03
2.134823837000004403e+02 3.061567405288278678e+03 1.048936145674453655e+03
2.135036836000004428e+02 3.039328230679316221e+03 1.039281162604925839e+03
2.135249835000004452e+02 3.017293303584865953e+03 1.029757454582911350e+03
2.135462834000004477e+02 2.995459855144982612e+03 1.020362470529372445e+03
2.135675833000004502e+02 2.973825170145320044e+03 1.011093724012821667e+03
2.135888832000004527e+02 2.952386585661710342e+03 1.001948791236694433e+03
2.136101831000004552e+02 2.931141489746812113e+03 9.929253091008811225e+02
2.136314830000004577e+02 2.910087320157315389e+03 9.840209733342619529e+02
2.136527829000004601e+02 2.889221563120138853e+03 9.752335366952574986e+02
2.136740828000004626e+02 2.868541752136322884e+03 9.665608072375246138e+02
2.136953827000004651e+02 2.848045466821144601e+03 9.580006466380835946e+02
2.137166826000004676e+02 2.827730331779208427e+03 9.495509685852873645e+02
2.137379825000004701e+02 2.807594015513289833e+03 9.412097372241574931e+02
2.137592824000004725e+02 2.787634229365656665e+03 9.329749656567314560e+02
2.137805823000004750e+02 2.767848726490814897e+03 9.248447144951824157e+02
2.138018822000004775e+02 2.748235300858479604e+03 9.168170904655613640e+02
2.138231821000004800e+02 2.728791786285810304e+03 9.088902450601260625e+02
2.138444820000004825e+02 2.709516055497820616e+03 9.010623732362971623e+02
2.138657819000004849e+02 2.690406019215042761e+03 8.933317121603924988e+02
2.138870818000004874e+02 2.671459625267470983e+03 8.856965399943486545e+02
2.139083817000004899e+02 2.652674857733912177e+03 8.781551747237444943e+02
2.139296816000004924e+02 2.634049736105875581e+03 8.707059730254941314e+02
2.139509815000004949e+02 2.615582314475171643e+03 8.633473291736693227e+02
2.139722814000004973e+02 2.597270680744423316e+03 8.560776739819624481e+02
2.139935813000004998e+02 2.579112955859720842e+03 8.488954737813801330e+02
2.140148812000005023e+02 2.561107293064696023e+03 8.417992294318079303e+02
2.140361811000005048e+02 2.543251877175292520e+03 8.347874753661544673e+02
2.140574810000005073e+02 2.525544923874577762e+03 8.278587786658385994e+02
2.140787809000005097e+02 2.507984679026885260e+03 8.210117381664239247e+02
2.141000808000005122e+02 2.490569418010749814e+03 8.142449835922780039e+02
2.141213807000005147e+02 2.473297445069921650e+03 8.075571747191613667e+02
2.141426806000005172e+02 2.456167092681969280e+03 8.009470005637080021e+02
2.141639805000005197e+02 2.439176720943848977e+03 7.944131785988015508e+02
2.141852804000005221e+02 2.422324716973920204e+03 7.879544539938925709e+02
2.142065803000005246e+02 2.405609494329890367e+03 7.815695988793389688e+02
2.142278802000005271e+02 2.389029492442174615e+03 7.752574116338981867e+02
2.142491801000005296e+02 2.372583176062210896e+03 7.690167161945216776e+02
2.142704800000005321e+02 2.356269034725218262e+03 7.628463613876580212e+02
2.142917799000005346e+02 2.340085582226989573e+03 7.567452202812768292e+02
2.143130798000005370e+02 2.324031356114280698e+03 7.507121895568858463e+02
2.143343797000005395e+02 2.308104917188352829e+03 7.447461889008176286e+02
2.143556796000005420e+02 2.292304849021304108e+03 7.388461604141123189e+02
2.143769795000005445e+02 2.276629757484739912e+03 7.330110680403353172e+02
2.143982794000005470e+02 2.261078270290494402e+03 7.272398970107011564e+02
2.144195793000005494e+02 2.245649036542939939e+03 7.215316533059013864e+02
2.144408792000005519e+02 2.230340726302636085e+03 7.158853631340562060e+02
2.144621791000005544e+02 2.215152030160900267e+03 7.103000724242266415e+02
2.144834790000005569e+02 2.200081658825009526e+03 7.047748463349597614e+02
2.145047789000005594e+02 2.185128342713721850e+03 6.993087687773469270e+02
2.145260788000005618e+02 2.170290831562808307e+03 6.939009419520996289e+02
2.145473787000005643e+02 2.155567894040287683e+03 6.885504859001697469e+02
2.145686786000005668e+02 2.140958317371107114e+03 6.832565380664575514e+02
2.145899785000005693e+02 2.126460906970968153e+03 6.780182528761611138e+02
2.146112784000005718e+02 2.112074486089058610e+03 6.728348013233540996e+02
2.146325783000005742e+02 2.097797895459401389e+03 6.677053705713733507e+02
2.146538782000005767e+02 2.083629992960616164e+03 6.626291635646339273e+02
2.146751781000005792e+02 2.069569653283819207e+03 6.576053986514906455e+02
2.146964780000005817e+02 2.055615767608431725e+03 6.526333092177793560e+02
2.147177779000005842e+02 2.041767243285709128e+03 6.477121433306969038e+02
2.147390778000005866e+02 2.028023003529718153e+03 6.428411633926765489e+02
2.147603777000005891e+02 2.014381987115609491e+03 6.380196458049346120e+02
2.147816776000005916e+02 2.000843148084935137e+03 6.332468806403835515e+02
2.148029775000005941e+02 1.987405455457854259e+03 6.285221713255992881e+02
2.148242774000005966e+02 1.974067892952012926e+03 6.238448343315637885e+02
2.148455773000005991e+02 1.960829458707897174e+03 6.192141988728955084e+02
2.148668772000006015e+02 1.947689165020549126e+03 6.146296066153043967e+02
2.148881771000006040e+02 1.934646038077394678e+03 6.100904113910066826e+02
2.149094770000006065e+02 1.921699117702052263e+03 6.055959789218535434e+02
2.149307769000006090e+02 1.908847457103985334e+03 6.011456865499287687e+02
2.149520768000006115e+02 1.896090122633778037e+03 5.967389229753861173e+02
2.149733767000006139e+02 1.883426193543950831e+03 5.923750880012971720e+02
2.149946766000006164e+02 1.870854761755126219e+03 5.880535922852989188e+02
2.150159765000006189e+02 1.858374931627406340e+03 5.837738570978239068e+02
2.150372764000006214e+02 1.845985819736850772e+03 5.795353140867225648e+02
2.150585763000006239e+02 1.833686554656874250e+03 5.753374050480686037e+02
2.150798762000006263e+02 1.821476276744489951e+03 5.711795817029737918e+02
2.151011761000006288e+02 1.809354137931236892e+03 5.670613054802180386e+02
2.151224760000006313e+02 1.797319301518655948e+03 5.629820473045293738e+02
2.151437759000006338e+02 1.785370941978247856e+03 5.589412873903372656e+02
2.151650758000006363e+02 1.773508244755744045e+03 5.549385150408400023e+02
2.151863757000006387e+02 1.761730406079615932e+03 5.509732284522259533e+02
2.152076756000006412e+02 1.750036632773689917e+03 5.470449345228963693e+02
2.152289755000006437e+02 1.738426142073787787e+03 5.431531486675421547e+02
2.152502754000006462e+02 1.726898161448261590e+03 5.392973946359327329e+02
2.152715753000006487e+02 1.715451928422351102e+03 5.354772043362770546e+02
2.152928752000006511e+02 1.704086690406247953e+03 5.316921176630265791e+02
2.153141751000006536e+02 1.692801704526786580e+03 5.279416823289866443e+02
2.153354750000006561e+02 1.681596237462663339e+03 5.242254537016165159e+02
2.153567749000006586e+02 1.670469565283105567e+03 5.205429946433940813e+02
2.153780748000006611e+02 1.659420973289890071e+03 5.168938753561305930e+02
2.153993747000006636e+02 1.648449755862633538e+03 5.132776732291196140e+02
2.154206746000006660e+02 1.637555216307294131e+03 5.096939726910149489e+02
2.154419745000006685e+02 1.626736666707779023e+03 5.061423650653294999e+02
2.154632744000006710e+02 1.615993427780576667e+03 5.026224484294517652e+02
2.154845743000006735e+02 1.605324828732393598e+03 4.991338274770837415e+02
2.155058742000006760e+02 1.594730207120647947e+03 4.956761133840017237e+02
2.155271741000006784e+02 1.584208908716805354e+03 4.922489236770492766e+02
2.155484740000006809e+02 1.573760287372470884e+03 4.888518821062716029e+02
2.155697739000006834e+02 1.563383704888169177e+03 4.854846185201025719e+02
2.155910738000006859e+02 1.553078530884752809e+03 4.821467687435236371e+02
2.156123737000006884e+02 1.542844142677379295e+03 4.788379744591105123e+02
2.156336736000006908e+02 1.532679925151969883e+03 4.755578830908881969e+02
