# Distance                   Potential                   Force
2.000100000000000193e+02 5.754825321194098069e+04 1.814904830441757804e+06
2.000311444000000165e+02 3.960253993711997464e+04 4.384479143219077378e+05
2.000522888000000137e+02 3.296791663078715646e+04 2.292867282617723977e+05
2.000734332000000109e+02 2.906567629447537911e+04 1.498799385904049268e+05
2.000945776000000080e+02 2.636776929814675896e+04 1.091621239103609114e+05
2.001157220000000052e+02 2.433701127407516469e+04 8.476535420772424550e+04
2.001368664000000024e+02 2.272552873211943734e+04 6.867258146184803627e+04
2.001580107999999996e+02 2.139976003010401837e+04 5.733886108688612876e+04
2.001791551999999967e+02 2.028002807645475332e+04 4.896797832397542516e+04
2.002002995999999939e+02 1.931523248972595684e+04 4.255784735993869981e+04
2.002214439999999911e+02 1.847077154774351584e+04 3.750774199074182980e+04
2.002425883999999883e+02 1.772220256847911151e+04 3.343684652802439086e+04
2.002637327999999854e+02 1.705166312357279821e+04 3.009270830834797380e+04
2.002848771999999826e+02 1.644573092393655315e+04 2.730172223794413003e+04
2.003060215999999798e+02 1.589408264256214170e+04 2.494079548239393625e+04
2.003271659999999770e+02 1.538862009069621854e+04 2.292035696947655015e+04
2.003483103999999742e+02 1.492288189491956655e+04 2.117376032277999911e+04
2.003694547999999713e+02 1.449163611075224435e+04 1.965044813712915129e+04
2.003905991999999685e+02 1.409059118121614847e+04 1.831141223926497696e+04
2.004117435999999657e+02 1.371618645229257527e+04 1.712610103745083325e+04
2.004328879999999629e+02 1.336543747157460894e+04 1.607026487171029294e+04
2.004540323999999600e+02 1.303581982164532928e+04 1.512442463750823299e+04
2.004751767999999572e+02 1.272518057742524616e+04 1.427276380171596065e+04
2.004963211999999544e+02 1.243166990538900245e+04 1.350231377983340644e+04
2.005174655999999516e+02 1.215368757596462274e+04 1.280234623818012369e+04
2.005386099999999487e+02 1.188984067229179527e+04 1.216391373258516796e+04
2.005597543999999459e+02 1.163890981196505163e+04 1.157949826183511868e+04
2.005808987999999431e+02 1.139982191690683067e+04 1.104273939400167183e+04
2.006020431999999403e+02 1.117162807388230613e+04 1.054822179763173699e+04
2.006231875999999374e+02 1.095348539156823608e+04 1.009130762988070092e+04
2.006443319999999346e+02 1.074464202380401548e+04 9.668003155226966555e+03
2.006654763999999318e+02 1.054442472235900459e+04 9.274851742254833880e+03
2.006866207999999290e+02 1.035222842643626245e+04 8.908847372918857218e+03
2.007077651999999262e+02 1.016750750413228343e+04 8.567364238720552748e+03
2.007289095999999233e+02 9.989768342925963225e+03 8.248099053326846843e+03
2.007500539999999205e+02 9.818563048873771550e+03 7.949023492148086007e+03
2.007711983999999177e+02 9.653484062476094550e+03 7.668344753025915452e+03
2.007923427999999149e+02 9.494159536724906502e+03 7.404472672251162294e+03
2.008134871999999120e+02 9.340249352253485995e+03 7.155992164755983140e+03
2.008346315999999092e+02 9.191441667711409536e+03 6.921640013793436992e+03
2.008557759999999064e+02 9.047449921914525476e+03 6.700285233460019299e+03
2.008769203999999036e+02 8.908010219045923805e+03 6.490912381427356195e+03
2.008980647999999007e+02 8.772879040023131893e+03 6.292607319821255260e+03
2.009192091999998979e+02 8.641831232718875981e+03 6.104545017180440482e+03
2.009403535999998951e+02 8.514658241503626414e+03 5.925979059721041267e+03
2.009614979999998923e+02 8.391166542934972313e+03 5.756232600154425199e+03
2.009826423999998894e+02 8.271176259637946714e+03 5.594690520414026651e+03
2.010037867999998866e+02 8.154519928724564124e+03 5.440792623406789971e+03
2.010249311999998838e+02 8.041041404667380448e+03 5.294027700288064807e+03
2.010460755999998810e+02 7.930594879507732912e+03 5.153928345289603385e+03
2.010672199999998782e+02 7.823044005757994455e+03 5.020066410994200851e+03
2.010883643999998753e+02 7.718261109434341961e+03 4.892049014074371371e+03
2.011095087999998725e+02 7.616126482405651586e+03 4.769515015625283013e+03
2.011306531999998697e+02 7.516527744720786359e+03 4.652131911899357874e+03
2.011517975999998669e+02 7.419359268828260610e+03 4.539593080949178329e+03
2.011729419999998640e+02 7.324521658666484655e+03 4.431615338770830022e+03
2.011940863999998612e+02 7.231921277510377877e+03 4.327936765304011715e+03
2.012152307999998584e+02 7.141469819236599506e+03 4.228314766323254844e+03
2.012363751999998556e+02 7.053083918336013085e+03 4.132524342036286725e+03
2.012575195999998527e+02 6.966684794574880470e+03 4.040356537245251275e+03
2.012786639999998499e+02 6.882197928701106321e+03 3.951617051349474423e+03
2.012998083999998471e+02 6.799552766019262890e+03 3.866124989377557540e+03
2.013209527999998443e+02 6.718682445029205155e+03 3.783711737715745585e+03
2.013420971999998415e+02 6.639523548645317533e+03 3.704219950318163228e+03
2.013632415999998386e+02 6.562015875794400927e+03 3.627502632999785874e+03
2.013843859999998358e+02 6.486102231435431349e+03 3.553422314972332970e+03
2.014055303999998330e+02 6.411728233259088483e+03 3.481850298126009420e+03
2.014266747999998302e+02 6.338842133513224326e+03 3.412665975719053677e+03
2.014478191999998273e+02 6.267394654565854580e+03 3.345756213139776719e+03
2.014689635999998245e+02 6.197338836963004724e+03 3.281014784275269903e+03
2.014901079999998217e+02 6.128629898867222437e+03 3.218341857776492361e+03
2.015112523999998189e+02 6.061225105876244925e+03 3.157643528167432578e+03
2.015323967999998160e+02 5.995083650321879759e+03 3.098831387320127760e+03
2.015535411999998132e+02 5.930166539238497535e+03 3.041822132319313368e+03
2.015746855999998104e+02 5.866436490269761634e+03 2.986537206180193152e+03
2.015958299999998076e+02 5.803857834852922679e+03 2.932902468268749544e+03
2.016169743999998047e+02 5.742396428082884995e+03 2.880847891613334923e+03
2.016381187999998019e+02 5.682019564714534681e+03 2.830307284595153305e+03
2.016592631999997991e+02 5.622695900812022046e+03 2.781218034768954567e+03
2.016804075999997963e+02 5.564395380598793054e+03 2.733520872798323580e+03
2.017015519999997935e+02 5.507089168102526855e+03 2.687159654696241432e+03
2.017226963999997906e+02 5.450749583225414426e+03 2.642081160744545741e+03
2.017438407999997878e+02 5.395350041902841440e+03 2.598234909628343758e+03
2.017649851999997850e+02 5.340865000043018881e+03 2.555572986465890608e+03
2.017861295999997822e+02 5.287269900966458408e+03 2.514049883543145825e+03
2.018072739999997793e+02 5.234541126088318379e+03 2.473622352676961782e+03
2.018284183999997765e+02 5.182655948608136896e+03 2.434249268233367729e+03
2.018495627999997737e+02 5.131592489991179718e+03 2.395891499919126545e+03
2.018707071999997709e+02 5.081329679043299620e+03 2.358511794546813690e+03
2.018918515999997680e+02 5.031847213397397354e+03 2.322074666047332357e+03
2.019129959999997652e+02 4.983125523244192664e+03 2.286546293069890908e+03
2.019341403999997624e+02 4.935145737153286063e+03 2.251894423568896400e+03
2.019552847999997596e+02 4.887889649842682047e+03 2.218088285830742279e+03
2.019764291999997567e+02 4.841339691765934731e+03 2.185098505441666930e+03
2.019975735999997539e+02 4.795478900396215067e+03 2.152897027741366855e+03
2.020187179999997511e+02 4.750290893095739193e+03 2.121457045346350696e+03
2.020398623999997483e+02 4.705759841467443039e+03 2.090752930362524239e+03
2.020610067999997455e+02 4.661870447093536313e+03 2.060760170938696774e+03
2.020821511999997426e+02 4.618607918572496601e+03 2.031455311841806633e+03
2.021032955999997398e+02 4.575957949772675420e+03 2.002815898761128210e+03
2.021244399999997370e+02 4.533906699226516139e+03 1.974820426072713417e+03
2.021455843999997342e+02 4.492440770594861533e+03 1.947448287817165237e+03
2.021667287999997313e+02 4.451547194135866448e+03 1.920679731663659823e+03
2.021878731999997285e+02 4.411213409117589435e+03 1.894495815651255725e+03
2.022090175999997257e+02 4.371427247117620936e+03 1.868878367514979118e+03
2.022301619999997229e+02 4.332176916156965490e+03 1.843809946419231210e+03
2.022513063999997200e+02 4.293450985619080711e+03 1.819273806934788581e+03
2.022724507999997172e+02 4.255238371908197223e+03 1.795253865108232503e+03
2.022935951999997144e+02 4.217528324804208751e+03 1.771734666484107038e+03
2.023147395999997116e+02 4.180310414474224672e+03 1.748701355950642665e+03
2.023358839999997087e+02 4.143574519103492094e+03 1.726139649289507588e+03
2.023570283999997059e+02 4.107310813110838353e+03 1.704035806318876212e+03
2.023781727999997031e+02 4.071509755916068116e+03 1.682376605527236279e+03
2.023993171999997003e+02 4.036162081228793795e+03 1.661149320102784714e+03
2.024204615999996975e+02 4.001258786830140707e+03 1.640341695270138644e+03
2.024416059999996946e+02 3.966791124820538244e+03 1.619941926852344068e+03
2.024627503999996918e+02 3.932750592308572777e+03 1.599938640982023344e+03
2.024838947999996890e+02 3.899128922517260889e+03 1.580320874890799132e+03
2.025050391999996862e+02 3.865918076285758616e+03 1.561078058711087806e+03
2.025261835999996833e+02 3.833110233945648361e+03 1.542199998228889399e+03
2.025473279999996805e+02 3.800697787552407135e+03 1.523676858530402797e+03
2.025684723999996777e+02 3.768673333453642044e+03 1.505499148489183881e+03
2.025896167999996749e+02 3.737029665176935396e+03 1.487657706044128417e+03
2.026107611999996720e+02 3.705759766620976734e+03 1.470143684221897274e+03
2.026319055999996692e+02 3.674856805534783689e+03 1.452948537860471106e+03
2.026530499999996664e+02 3.644314127270606605e+03 1.436064010993356760e+03
2.026741943999996636e+02 3.614125248796906817e+03 1.419482124856617929e+03
2.026953387999996608e+02 3.584283852958659281e+03 1.403195166483333423e+03
2.027164831999996579e+02 3.554783782972916924e+03 1.387195677852379504e+03
2.027376275999996551e+02 3.525619037148205734e+03 1.371476445560509774e+03
2.027587719999996523e+02 3.496783763817042654e+03 1.356030490988697238e+03
2.027799163999996495e+02 3.468272256471395849e+03 1.340851060935501891e+03
2.028010607999996466e+02 3.440078949091466711e+03 1.325931618691927270e+03
2.028222051999996438e+02 3.412198411658758687e+03 1.311265835533816016e+03
2.028433495999996410e+02 3.384625345844792719e+03 1.296847582609280607e+03
2.028644939999996382e+02 3.357354580867403001e+03 1.282670923200064863e+03
2.028856383999996353e+02 3.330381069506853237e+03 1.268730105336975839e+03
2.029067827999996325e+02 3.303699884274526084e+03 1.255019554750739871e+03
2.029279271999996297e+02 3.277306213727280920e+03 1.241533868140726781e+03
2.029490715999996269e+02 3.251195358920913804e+03 1.228267806745049711e+03
2.029702159999996240e+02 3.225362729996543294e+03 1.215216290196482532e+03
2.029913603999996212e+02 3.199803842893988985e+03 1.202374390649575162e+03
2.030125047999996184e+02 3.174514316186615360e+03 1.189737327165165652e+03
2.030336491999996156e+02 3.149489868032270351e+03 1.177300460339310348e+03
2.030547935999996128e+02 3.124726313235363705e+03 1.165059287164357329e+03
2.030759379999996099e+02 3.100219560415197975e+03 1.153009436110620300e+03
2.030970823999996071e+02 3.075965609276110627e+03 1.141146662417736479e+03
2.031182267999996043e+02 3.051960547975007557e+03 1.129466843585407105e+03
2.031393711999996015e+02 3.028200550582252617e+03 1.117965975053795319e+03
2.031605155999995986e+02 3.004681874631962273e+03 1.106640166064394180e+03
2.031816599999995958e+02 2.981400858757968763e+03 1.095485635692664346e+03
2.032028043999995930e+02 2.958353920411948820e+03 1.084498709044246425e+03
2.032239487999995902e+02 2.935537553660324647e+03 1.073675813606954534e+03
2.032450931999995873e+02 2.912948327056689322e+03 1.063013475751213946e+03
2.032662375999995845e+02 2.890582881586756230e+03 1.052508317371977228e+03
2.032873819999995817e+02 2.868437928682846177e+03 1.042157052665522542e+03
2.033085263999995789e+02 2.846510248305172809e+03 1.031956485034894740e+03
2.033296707999995760e+02 2.824796687087256942e+03 1.021903504118070600e+03
2.033508151999995732e+02 2.803294156542905057e+03 1.011995082933234471e+03
2.033719595999995704e+02 2.781999631332401805e+03 1.002228275135848321e+03
2.033931039999995676e+02 2.760910147585504546e+03 9.926002123824684986e+02
2.034142483999995648e+02 2.740022801279159012e+03 9.831081017965199180e+02
2.034353927999995619e+02 2.719334746667702348e+03 9.737492235314800837e+02
2.034565371999995591e+02 2.698843194763633164e+03 9.645209284271569459e+02
2.034776815999995563e+02 2.678545411866992254e+03 9.554206357549637687e+02
2.034988259999995535e+02 2.658438718141486333e+03 9.464458310482892784e+02
2.035199703999995506e+02 2.638520486235643602e+03 9.375940640142629263e+02
2.035411147999995478e+02 2.618788139947286254e+03 9.288629465233916562e+02
2.035622591999995450e+02 2.599239152929716965e+03 9.202501506737253294e+02
2.035834035999995422e+02 2.579871047438077312e+03 9.117534069263590482e+02
2.036045479999995393e+02 2.560681393114407001e+03 9.033705023092417150e+02
2.036256923999995365e+02 2.541667805809979200e+03 8.950992786864076152e+02
2.036468367999995337e+02 2.522827946443566361e+03 8.869376310898816200e+02
2.036679811999995309e+02 2.504159519894348705e+03 8.788835061116387806e+02
2.036891255999995280e+02 2.485660273928184779e+03 8.709349003531285689e+02
2.037102699999995252e+02 2.467327998156111335e+03 8.630898589299806645e+02
2.037314143999995224e+02 2.449160523023874248e+03 8.553464740296358286e+02
2.037525587999995196e+02 2.431155718831416834e+03 8.477028835197321541e+02
2.037737031999995168e+02 2.413311494781293277e+03 8.401572696051950970e+02
2.037948475999995139e+02 2.395625798054953975e+03 8.327078575320542768e+02
2.038159919999995111e+02 2.378096612915987407e+03 8.253529143361261049e+02
2.038371363999995083e+02 2.360721959839337160e+03 8.180907476347551892e+02
2.038582807999995055e+02 2.343499894665643296e+03 8.109197044599160336e+02
2.038794251999995026e+02 2.326428507779834035e+03 8.038381701310382823e+02
2.039005695999994998e+02 2.309505923313125095e+03 7.968445671659941354e+02
2.039217139999994970e+02 2.292730298367685009e+03 7.899373542287581813e+02
2.039428583999994942e+02 2.276099822263155602e+03 7.831150251123176531e+02
2.039640027999994913e+02 2.259612715804315940e+03 7.763761077554627263e+02
2.039851471999994885e+02 2.243267230569208095e+03 7.697191632921662858e+02
2.040062915999994857e+02 2.227061648217015318e+03 7.631427851322955576e+02
2.040274359999994829e+02 2.210994279815049595e+03 7.566455980724713299e+02
2.040485803999994801e+02 2.195063465184256529e+03 7.502262574359314158e+02
2.040697247999994772e+02 2.179267572262584508e+03 7.438834482403051425e+02
2.040908691999994744e+02 2.163604996485676565e+03 7.376158843922567030e+02
2.041120135999994716e+02 2.148074160184322864e+03 7.314223079079940817e+02
2.041331579999994688e+02 2.132673511998108097e+03 7.253014881586851743e+02
2.041543023999994659e+02 2.117401526304783602e+03 7.192522211398643321e+02
2.041754467999994631e+02 2.102256702664832574e+03 7.132733287639454147e+02
2.041965911999994603e+02 2.087237565280744093e+03 7.073636581750032519e+02
2.042177355999994575e+02 2.072342662470568030e+03 7.015220810850073576e+02
2.042388799999994546e+02 2.057570566155272900e+03 6.957474931307418728e+02
2.042600243999994518e+02 2.042919871359500121e+03 6.900388132506579950e+02
2.042811687999994490e+02 2.028389195725270383e+03 6.843949830809535797e+02
2.043023131999994462e+02 2.013977179038286067e+03 6.788149663701894951e+02
2.043234575999994433e+02 1.999682482766391786e+03 6.732977484117914173e+02
2.043446019999994405e+02 1.985503789609891555e+03 6.678423354937999648e+02
2.043657463999994377e+02 1.971439803063286945e+03 6.624477543652701570e+02
2.043868907999994349e+02 1.957489246988135392e+03 6.571130517187332316e+02
2.044080351999994321e+02 1.943650865196707855e+03 6.518372936881678470e+02
2.044291795999994292e+02 1.929923421046067915e+03 6.466195653619391805e+02
2.044503239999994264e+02 1.916305697042329939e+03 6.414589703101950136e+02
2.044714683999994236e+02 1.902796494454738422e+03 6.363546301262196039e+02
2.044926127999994208e+02 1.889394632939309076e+03 6.313056839812730914e+02
2.045137571999994179e+02 1.876098950171742217e+03 6.263112881924546400e+02
2.045349015999994151e+02 1.862908301489349014e+03 6.213706158031538962e+02
2.045560459999994123e+02 1.849821559541709121e+03 6.164828561756636418e+02
2.045771903999994095e+02 1.836837613949814795e+03 6.116472145955473252e+02
2.045983347999994066e+02 1.823955370973471418e+03 6.068629118873735706e+02
2.046194791999994038e+02 1.811173753186700196e+03 6.021291840414329499e+02
2.046406235999994010e+02 1.798491699160915459e+03 5.974452818510836778e+02
2.046617679999993982e+02 1.785908163155668490e+03 5.928104705603699358e+02
2.046829123999993953e+02 1.773422114816736894e+03 5.882240295215783590e+02
2.047040567999993925e+02 1.761032538881343726e+03 5.836852518624129971e+02
2.047252011999993897e+02 1.748738434890332428e+03 5.791934441624698593e+02
2.047463455999993869e+02 1.736538816907054297e+03 5.747479261387167071e+02
2.047674899999993841e+02 1.724432713242860927e+03 5.703480303396879663e+02
2.047886343999993812e+02 1.712419166188927193e+03 5.659931018481105411e+02
2.048097787999993784e+02 1.700497231754301993e+03 5.616824979917004157e+02
2.048309231999993756e+02 1.688665979409985312e+03 5.574155880618636729e+02
2.048520675999993728e+02 1.676924491838863105e+03 5.531917530400569376e+02
2.048732119999993699e+02 1.665271864691361770e+03 5.490103853315623610e+02
2.048943563999993671e+02 1.653707206346650537e+03 5.448708885064504557e+02
2.049155007999993643e+02 1.642229637679236248e+03 5.407726770475007925e+02
2.049366451999993615e+02 1.630838291830832304e+03 5.367151761048697836e+02
2.049577895999993586e+02 1.619532313987339421e+03 5.326978212572925031e+02
2.049789339999993558e+02 1.608310861160812237e+03 5.287200582796217532e+02
2.050000783999993530e+02 1.597173101976264888e+03 5.247813429165063326e+02
2.050212227999993502e+02 1.586118216463203908e+03 5.208811406620251319e+02
2.050423671999993473e+02 1.575145395851770672e+03 5.170189265450907214e+02
2.050635115999993445e+02 1.564253842373347879e+03 5.131941849204548589e+02
2.050846559999993417e+02 1.553442769065524772e+03 5.094064092651399278e+02
2.051058003999993389e+02 1.542711399581333808e+03 5.056551019801388520e+02
2.051269447999993361e+02 1.532058968002589836e+03 5.019397741972241533e+02
2.051480891999993332e+02 1.521484718657300391e+03 4.982599455907121637e+02
2.051692335999993304e+02 1.510987905940972951e+03 4.946151441940393170e+02
2.051903779999993276e+02 1.500567794141772993e+03 4.910049062210051716e+02
2.052115223999993248e+02 1.490223657269396881e+03 4.874287758915476161e+02
2.052326667999993219e+02 1.479954778887601833e+03 4.838863052619146288e+02
2.052538111999993191e+02 1.469760451950254492e+03 4.803770540591071381e+02
2.052749555999993163e+02 1.459639978640864456e+03 4.769005895194670757e+02
2.052960999999993135e+02 1.449592670215462249e+03 4.734564862312921036e+02
2.053172443999993106e+02 1.439617846848792169e+03 4.700443259813590657e+02
2.053383887999993078e+02 1.429714837483675865e+03 4.666636976052467958e+02
2.053595331999993050e+02 1.419882979683531630e+03 4.633141968413464724e+02
2.053806775999993022e+02 1.410121619487928683e+03 4.599954261884571451e+02
2.054018219999992994e+02 1.400430111271113219e+03 4.567069947668622376e+02
2.054229663999992965e+02 1.390807817603440753e+03 4.534485181827925544e+02
2.054441107999992937e+02 1.381254109115637675e+03 4.502196183961756333e+02
2.054652551999992909e+02 1.371768364365834714e+03 4.470199235915827103e+02
2.054863995999992881e+02 1.362349969709277048e+03 4.438490680522826892e+02
2.055075439999992852e+02 1.352998319170678542e+03 4.407066920373181347e+02
2.055286883999992824e+02 1.343712814319145991e+03 4.375924416615163750e+02
2.055498327999992796e+02 1.334492864145595831e+03 4.345059687783578966e+02
2.055709771999992768e+02 1.325337884942637857e+03 4.314469308656222211e+02
2.055921215999992739e+02 1.316247300186835673e+03 4.284149909137357213e+02
