# Distance                   Potential                   Force
1.900095000000000312e+02 5.610347626620536903e+04 1.838448108389843488e+06
1.900306445000000224e+02 3.837314250446871301e+04 4.251438475080069620e+05
1.900517890000000136e+02 3.196728002100036247e+04 2.205582544683220040e+05
1.900729335000000049e+02 2.821993472056834798e+04 1.437101061301244190e+05
1.900940779999999961e+02 2.563531092188567345e+04 1.044956373096479947e+05
1.901152224999999873e+02 2.369230926778413050e+04 8.106572345132133341e+04
1.901363669999999786e+02 2.215160066422724049e+04 6.563914367304132611e+04
1.901575114999999698e+02 2.088460283880346105e+04 5.478868809129685542e+04
1.901786559999999611e+02 1.981476297030920250e+04 4.678243787826039625e+04
1.901998004999999523e+02 1.889305660614025328e+04 4.065606148182057223e+04
1.902209449999999435e+02 1.808632511259846433e+04 3.583232679813553841e+04
1.902420894999999348e+02 1.737116610451358792e+04 3.194574241421743500e+04
1.902632339999999260e+02 1.673048977860838568e+04 2.875424579501996777e+04
1.902843784999999173e+02 1.615146212184637261e+04 2.609150837193585176e+04
1.903055229999999085e+02 1.562421724882001581e+04 2.383967507513409146e+04
1.903266674999998997e+02 1.514101915185380858e+04 2.191303487960459097e+04
1.903478119999998910e+02 1.469569773367532071e+04 2.024784478889219827e+04
1.903689564999998822e+02 1.428325852722803211e+04 1.879577056615801848e+04
1.903901009999998735e+02 1.389960593992718714e+04 1.751953339621395571e+04
1.904112454999998647e+02 1.354134276795268670e+04 1.638994589390420515e+04
1.904323899999998559e+02 1.320562220233036533e+04 1.538384812328397493e+04
1.904535344999998472e+02 1.289003674043643150e+04 1.448264131643980727e+04
1.904746789999998384e+02 1.259253354226927331e+04 1.367122741157726705e+04
1.904958234999998297e+02 1.231134906142463296e+04 1.293722965139607732e+04
1.905169679999998209e+02 1.204495794227273291e+04 1.227041135020078218e+04
1.905381124999998121e+02 1.179203262440183971e+04 1.166223666865506311e+04
1.905592569999998034e+02 1.155141108584118774e+04 1.110553466463801124e+04
1.905804014999997946e+02 1.132207084493403090e+04 1.059423947333415526e+04
1.906015459999997859e+02 1.110310782663037753e+04 1.012318730538321142e+04
1.906226904999997771e+02 1.089371904687999813e+04 9.687956337542213078e+03
1.906438349999997683e+02 1.069318832120715706e+04 9.284739327005243467e+03
1.906649794999997596e+02 1.050087438889162331e+04 8.910241436936468745e+03
1.906861239999997508e+02 1.031620098181986214e+04 8.561597663030237527e+03
1.907072684999997421e+02 1.013864847035607090e+04 8.236305629197673625e+03
1.907284129999997333e+02 9.967746796847059159e+03 7.932170530095262620e+03
1.907495574999997245e+02 9.803069467220078877e+03 7.647259745358497639e+03
1.907707019999997158e+02 9.644228417285217802e+03 7.379865208625004925e+03
1.907918464999997070e+02 9.490869606230891804e+03 7.128472035254396360e+03
1.908129909999996983e+02 9.342669217901111551e+03 6.891732232579363881e+03
1.908341354999996895e+02 9.199330372607008030e+03 6.668442561682393716e+03
1.908552799999996807e+02 9.060580269825402866e+03 6.457525808969777245e+03
1.908764244999996720e+02 8.926167696199958300e+03 6.258014872984848807e+03
1.908975689999996632e+02 8.795860844565342632e+03 6.069039187101595417e+03
1.909187134999996545e+02 8.669445398853693405e+03 5.889813089487442085e+03
1.909398579999996457e+02 8.546722847170169189e+03 5.719625823642169962e+03
1.909610024999996369e+02 8.427508991392032840e+03 5.557832910142752553e+03
1.909821469999996282e+02 8.311632626626696947e+03 5.403848676163412165e+03
1.910032914999996194e+02 8.198934367971745814e+03 5.257139766348236662e+03
1.910244359999996107e+02 8.089265605422680892e+03 5.117219488575308787e+03
1.910455804999996019e+02 7.982487570604370376e+03 4.983642872522728794e+03
1.910667249999995931e+02 7.878470501366426106e+03 4.856002338861288990e+03
1.910878694999995844e+02 7.777092892264447073e+03 4.733923893241641963e+03
1.911090139999995756e+02 7.678240820617361351e+03 4.617063772711569072e+03
1.911301584999995669e+02 7.581807339239394423e+03 4.505105483341696527e+03
1.911513029999995581e+02 7.487691928139170159e+03 4.397757177092235906e+03
1.911724474999995493e+02 7.395799998492989289e+03 4.294749323667358112e+03
1.911935919999995406e+02 7.306042443065021871e+03 4.195832639556680988e+03
1.912147364999995318e+02 7.218335227987431608e+03 4.100776241879581903e+03
1.912358809999995231e+02 7.132599021448580061e+03 4.009365999208977883e+03
1.912570254999995143e+02 7.048758855383979608e+03 3.921403055404043243e+03
1.912781699999995055e+02 6.966743816735949622e+03 3.836702505745849066e+03
1.912993144999994968e+02 6.886486765255749560e+03 3.755092207444046835e+03
1.913204589999994880e+02 6.807924075175392318e+03 3.676411708946796807e+03
1.913416034999994793e+02 6.730995398383591237e+03 3.600511284506239917e+03
1.913627479999994705e+02 6.655643447008054864e+03 3.527251062182603619e+03
1.913838924999994617e+02 6.581813793540047300e+03 3.456500234956653458e+03
1.914050369999994530e+02 6.509454686841692819e+03 3.388136345900288234e+03
1.914261814999994442e+02 6.438516882555908523e+03 3.322044639459945301e+03
1.914473259999994355e+02 6.368953486596534276e+03 3.258117471863336505e+03
1.914684704999994267e+02 6.300719810534956196e+03 3.196253774488772706e+03
1.914896149999994179e+02 6.233773237822148076e+03 3.136358564756528722e+03
1.915107594999994092e+02 6.168073099893113977e+03 3.078342499728725670e+03
1.915319039999994004e+02 6.103580561296790620e+03 3.022121468151418867e+03
1.915530484999993917e+02 6.040258513079321347e+03 2.967616217150916782e+03
1.915741929999993829e+02 5.978071473724316093e+03 2.914752010215418522e+03
1.915953374999993741e+02 5.916985497020887124e+03 2.863458313460789213e+03
1.916164819999993654e+02 5.856968086290280553e+03 2.813668507502650300e+03
1.916376264999993566e+02 5.797988114455421055e+03 2.765319622541699118e+03
1.916587709999993479e+02 5.740015749485593915e+03 2.718352094520474566e+03
1.916799154999993391e+02 5.683022384791402146e+03 2.672709540431792448e+03
1.917010599999993303e+02 5.626980574183590761e+03 2.628338551055654989e+03
1.917222044999993216e+02 5.571863971043840138e+03 2.585188499575698188e+03
1.917433489999993128e+02 5.517647271386841567e+03 2.543211364681012583e+03
1.917644934999993040e+02 5.464306160520808589e+03 2.502361566896749991e+03
1.917856379999992953e+02 5.411817263038913552e+03 2.462595817009543680e+03
1.918067824999992865e+02 5.360158095896998930e+03 2.423872975563081582e+03
1.918279269999992778e+02 5.309307024353322959e+03 2.386153922496781888e+03
1.918490714999992690e+02 5.259243220565018419e+03 2.349401436087902766e+03
1.918702159999992602e+02 5.209946624652648097e+03 2.313580080435578111e+03
1.918913604999992515e+02 5.161397908059710971e+03 2.278656100795433758e+03
1.919125049999992427e+02 5.113578439047818392e+03 2.244597326136399261e+03
1.919336494999992340e+02 5.066470250180997027e+03 2.211373078347936826e+03
1.919547939999992252e+02 5.020056007664079516e+03 2.178954087576879374e+03
1.919759384999992164e+02 4.974318982410683930e+03 2.147312413218959591e+03
1.919970829999992077e+02 4.929243022725830997e+03 2.116421370131561616e+03
1.920182274999991989e+02 4.884812528497099265e+03 2.086255459671645440e+03
1.920393719999991902e+02 4.841012426796150066e+03 2.056790305196595455e+03
1.920605164999991814e+02 4.797828148799813789e+03 2.028002591696412992e+03
1.920816609999991726e+02 4.755245607946650125e+03 1.999870009253394073e+03
1.921028054999991639e+02 4.713251179251030408e+03 1.972371200050622747e+03
1.921239499999991551e+02 4.671831679702461770e+03 1.945485708673463705e+03
1.921450944999991464e+02 4.630974349683026048e+03 1.919193935469014832e+03
1.921662389999991376e+02 4.590666835340606667e+03 1.893477092747386905e+03
1.921873834999991288e+02 4.550897171859931404e+03 1.868317163625892363e+03
1.922085279999991201e+02 4.511653767577530743e+03 1.843696863332914290e+03
1.922296724999991113e+02 4.472925388890396789e+03 1.819599602802548134e+03
1.922508169999991026e+02 4.434701145911580170e+03 1.796009454404184908e+03
1.922719614999990938e+02 4.396970478829122840e+03 1.772911119663152704e+03
1.922931059999990850e+02 4.359723144927649628e+03 1.750289898839459511e+03
1.923142504999990763e+02 4.322949206234668964e+03 1.728131662241711410e+03
1.923353949999990675e+02 4.286639017756056091e+03 1.706422823162426766e+03
1.923565394999990588e+02 4.250783216267641365e+03 1.685150312329394183e+03
1.923776839999990500e+02 4.215372709631805265e+03 1.664301553775439970e+03
1.923988284999990412e+02 4.180398666610145483e+03 1.643864442036065611e+03
1.924199729999990325e+02 4.145852507144963965e+03 1.623827320590926547e+03
1.924411174999990237e+02 4.111725893084159907e+03 1.604178961471129696e+03
1.924622619999990150e+02 4.078010719325627178e+03 1.584908545959845469e+03
1.924834064999990062e+02 4.044699105358752149e+03 1.566005646318818208e+03
1.925045509999989974e+02 4.011783387182043498e+03 1.547460208478052209e+03
1.925256954999989887e+02 3.979256109577076131e+03 1.529262535630267394e+03
1.925468399999989799e+02 3.947110018720264634e+03 1.511403272675731387e+03
1.925679844999989712e+02 3.915338055114984854e+03 1.493873391466751855e+03
1.925891289999989624e+02 3.883933346827670448e+03 1.476664176804531053e+03
1.926102734999989536e+02 3.852889203012436155e+03 1.459767213144248217e+03
1.926314179999989449e+02 3.822199107709686814e+03 1.443174371967145817e+03
1.926525624999989361e+02 3.791856713905033757e+03 1.426877799781114163e+03
1.926737069999989274e+02 3.761855837835597413e+03 1.410869906713779756e+03
1.926948514999989186e+02 3.732190453531553885e+03 1.395143355664413548e+03
1.927159959999989098e+02 3.702854687581413145e+03 1.379691051983165153e+03
1.927371404999989011e+02 3.673842814110221752e+03 1.364506133648103059e+03
1.927582849999988923e+02 3.645149249960451925e+03 1.349581961912433371e+03
1.927794294999988836e+02 3.616768550065899490e+03 1.334912112395982149e+03
1.928005739999988748e+02 3.588695403009470283e+03 1.320490366596644890e+03
1.928217184999988660e+02 3.560924626756220732e+03 1.306310703799020075e+03
1.928428629999988573e+02 3.533451164553463059e+03 1.292367293358815004e+03
1.928640074999988485e+02 3.506270080990240785e+03 1.278654487342940229e+03
1.928851519999988398e+02 3.479376558208809911e+03 1.265166813506405106e+03
1.929062964999988310e+02 3.452765892261224963e+03 1.251898968588267280e+03
1.929274409999988222e+02 3.426433489604460647e+03 1.238845811909945269e+03
1.929485854999988135e+02 3.400374863727824504e+03 1.226002359260188769e+03
1.929697299999988047e+02 3.374585631906779327e+03 1.213363777051916486e+03
1.929908744999987960e+02 3.349061512077562838e+03 1.200925376737010311e+03
1.930120189999987872e+02 3.323798319827284104e+03 1.188682609465937503e+03
1.930331634999987784e+02 3.298791965494477608e+03 1.176631060979846325e+03
1.930543079999987697e+02 3.274038451375289696e+03 1.164766446723473337e+03
1.930754524999987609e+02 3.249533869030773076e+03 1.153084607167865897e+03
1.930965969999987522e+02 3.225274396690952017e+03 1.141581503332542070e+03
1.931177414999987434e+02 3.201256296751545506e+03 1.130253212497291997e+03
1.931388859999987346e+02 3.177475913359448441e+03 1.119095924094364364e+03
1.931600304999987259e+02 3.153929670083219207e+03 1.108105935772292696e+03
1.931811749999987171e+02 3.130614067665081166e+03 1.097279649623107389e+03
1.932023194999987084e+02 3.107525681851012450e+03 1.086613568565102923e+03
1.932234639999986996e+02 3.084661161295777219e+03 1.076104292873782242e+03
1.932446084999986908e+02 3.062017225539760602e+03 1.065748516853977435e+03
1.932657529999986821e+02 3.039590663054770630e+03 1.055543025646524256e+03
1.932868974999986733e+02 3.017378329355974074e+03 1.045484692163222462e+03
1.933080419999986646e+02 2.995377145177350940e+03 1.035570474144142281e+03
1.933291864999986558e+02 2.973584094708112843e+03 1.025797411331643843e+03
1.933503309999986470e+02 2.951996223887710585e+03 1.016162622755780490e+03
1.933714754999986383e+02 2.930610638757075776e+03 1.006663304126016783e+03
1.933926199999986295e+02 2.909424503863969676e+03 9.972967253244709127e+02
1.934137644999986207e+02 2.888435040720257348e+03 9.880602279961154863e+02
1.934349089999986120e+02 2.867639526309208122e+03 9.789512232316224072e+02
1.934560534999986032e+02 2.847035291640788273e+03 9.699671893387400132e+02
1.934771979999985945e+02 2.826619720353209686e+03 9.611056696983039274e+02
1.934983424999985857e+02 2.806390247358952365e+03 9.523642707011753146e+02
1.935194869999985769e+02 2.786344357533563198e+03 9.437406597625871427e+02
1.935406314999985682e+02 2.766479584445663477e+03 9.352325634105433210e+02
1.935617759999985594e+02 2.746793509126636764e+03 9.268377654450939644e+02
1.935829204999985507e+02 2.727283758878475965e+03 9.185541051654478224e+02
1.936040649999985419e+02 2.707948006118477224e+03 9.103794756620486623e+02
1.936252094999985331e+02 2.688783967259334986e+03 9.023118221708579085e+02
1.936463539999985244e+02 2.669789401623431331e+03 8.943491404872456769e+02
1.936674984999985156e+02 2.650962110390055386e+03 8.864894754369836392e+02
1.936886429999985069e+02 2.632299935574339543e+03 8.787309194019826464e+02
1.937097874999984981e+02 2.613800759036850195e+03 8.710716108985074015e+02
1.937309319999984893e+02 2.595462501522679304e+03 8.635097332057127915e+02
1.937520764999984806e+02 2.577283121729023151e+03 8.560435130424505132e+02
1.937732209999984718e+02 2.559260615400256938e+03 8.486712192903876257e+02
1.937943654999984631e+02 2.541393014449529346e+03 8.413911617615609657e+02
1.938155099999984543e+02 2.523678386105957543e+03 8.342016900085883435e+02
1.938366544999984455e+02 2.506114832086557726e+03 8.271011921758346261e+02
1.938577989999984368e+02 2.488700487792026706e+03 8.200880938899005059e+02
1.938789434999984280e+02 2.471433521525617834e+03 8.131608571878870180e+02
1.939000879999984193e+02 2.454312133734234067e+03 8.063179794819475319e+02
1.939212324999984105e+02 2.437334556271112888e+03 7.995579925587131811e+02
1.939423769999984017e+02 2.420499051679262720e+03 7.928794616122349908e+02
1.939635214999983930e+02 2.403803912495003715e+03 7.862809843091433777e+02
1.939846659999983842e+02 2.387247460570994008e+03 7.797611898847960674e+02
1.940058104999983755e+02 2.370828046417983387e+03 7.733187382692199208e+02
1.940269549999983667e+02 2.354544048564806872e+03 7.669523192417159407e+02
1.940480994999983579e+02 2.338393872935904255e+03 7.606606516130470936e+02
1.940692439999983492e+02 2.322375952245886765e+03 7.544424824341637077e+02
1.940903884999983404e+02 2.306488745410562842e+03 7.482965862304768052e+02
1.941115329999983317e+02 2.290730736973864168e+03 7.422217642607279231e+02
1.941326774999983229e+02 2.275100436550217637e+03 7.362168437995402428e+02
1.941538219999983141e+02 2.259596378281840771e+03 7.302806774427806431e+02
1.941749664999983054e+02 2.244217120310473547e+03 7.244121424348946903e+02
1.941961109999982966e+02 2.228961244263126900e+03 7.186101400174101173e+02
1.942172554999982879e+02 2.213827354751392704e+03 7.128735947978465219e+02
1.942383999999982791e+02 2.198814078883869115e+03 7.072014541382839070e+02
1.942595444999982703e+02 2.183920065791317029e+03 7.015926875628919106e+02
1.942806889999982616e+02 2.169143986164174748e+03 6.960462861837344235e+02
1.943018334999982528e+02 2.154484531801997946e+03 6.905612621442055570e+02
1.943229779999982441e+02 2.139940415174492045e+03 6.851366480794645213e+02
1.943441224999982353e+02 2.125510368993785960e+03 6.797714965932756286e+02
1.943652669999982265e+02 2.111193145797603393e+03 6.744648797506756637e+02
1.943864114999982178e+02 2.096987517542982459e+03 6.692158885859165594e+02
1.944075559999982090e+02 2.082892275210266689e+03 6.640236326251492756e+02
1.944287004999982003e+02 2.068906228417005423e+03 6.588872394233438854e+02
1.944498449999981915e+02 2.055028205041532601e+03 6.538058541149537177e+02
1.944709894999981827e+02 2.041257050855882653e+03 6.487786389778482317e+02
1.944921339999981740e+02 2.027591629167801557e+03 6.438047730100728359e+02
1.945132784999981652e+02 2.014030820471577726e+03 6.388834515189846570e+02
1.945344229999981565e+02 2.000573522107412373e+03 6.340138857223635114e+02
1.945555674999981477e+02 1.987218647929133340e+03 6.291953023610809623e+02
1.945767119999981389e+02 1.973965127979950012e+03 6.244269433229482047e+02
1.945978564999981302e+02 1.960811908176067618e+03 6.197080652773694283e+02
1.946190009999981214e+02 1.947757949997907645e+03 6.150379393204383405e+02
1.946401454999981127e+02 1.934802230188724025e+03 6.104158506301395164e+02
1.946612899999981039e+02 1.921943740460406389e+03 6.058410981313160164e+02
1.946824344999980951e+02 1.909181487206271186e+03 6.013129941700883592e+02
1.947035789999980864e+02 1.896514491220629452e+03 5.968308641974128932e+02
1.947247234999980776e+02 1.883941787424975928e+03 5.923940464614887560e+02
1.947458679999980689e+02 1.871462424600547592e+03 5.880018917087220416e+02
1.947670124999980601e+02 1.859075465127175903e+03 5.836537628929754646e+02
1.947881569999980513e+02 1.846779984728134878e+03 5.793490348928366984e+02
1.948093014999980426e+02 1.834575072220945685e+03 5.750870942366527743e+02
1.948304459999980338e+02 1.822459829273876721e+03 5.708673388350798632e+02
1.948515904999980251e+02 1.810433370168041165e+03 5.666891777209159500e+02
1.948727349999980163e+02 1.798494821564900803e+03 5.625520307959820911e+02
1.948938794999980075e+02 1.786643322279076301e+03 5.584553285848370479e+02
1.949150239999979988e+02 1.774878023056264055e+03 5.543985119951086062e+02
1.949361684999979900e+02 1.763198086356186423e+03 5.503810320842359260e+02
1.949573129999979813e+02 1.751602686140373862e+03 5.464023498324295360e+02
1.949784574999979725e+02 1.740091007664714652e+03 5.424619359216513885e+02
1.949996019999979637e+02 1.728662247276587323e+03 5.385592705204328468e+02
1.950207464999979550e+02 1.717315612216502814e+03 5.346938430743557547e+02
1.950418909999979462e+02 1.706050320424120628e+03 5.308651521020200335e+02
1.950630354999979374e+02 1.694865600348497310e+03 5.270727049963334139e+02
1.950841799999979287e+02 1.683760690762514741e+03 5.233160178309617550e+02
1.951053244999979199e+02 1.672734840581324534e+03 5.195946151717898829e+02
1.951264689999979112e+02 1.661787308684732579e+03 5.159080298932346977e+02
1.951476134999979024e+02 1.650917363743425994e+03 5.122558029992757156e+02
1.951687579999978936e+02 1.640124284048924210e+03 5.086374834490554235e+02
1.951899024999978849e+02 1.629407357347177140e+03 5.050526279869176278e+02
1.952110469999978761e+02 1.618765880675713106e+03 5.015008009767558974e+02
1.952321914999978674e+02 1.608199160204232157e+03 4.979815742405398851e+02
1.952533359999978586e+02 1.597706511078590665e+03 4.944945269009041340e+02
1.952744804999978498e+02 1.587287257268058283e+03 4.910392452276753943e+02
1.952956249999978411e+02 1.576940731415783830e+03 4.876153224882300492e+02
1.953167694999978323e+02 1.566666274692375964e+03 4.842223588015672249e+02
1.953379139999978236e+02 1.556463236652550449e+03 4.808599609959923669e+02
1.953590584999978148e+02 1.546330975094743053e+03 4.775277424703078850e+02
1.953802029999978060e+02 1.536268855923595083e+03 4.742253230584124708e+02
1.954013474999977973e+02 1.526276253015313387e+03 4.709523288972091564e+02
1.954224919999977885e+02 1.516352548085752915e+03 4.677083922977318480e+02
1.954436364999977798e+02 1.506497130561200493e+03 4.644931516193978496e+02
1.954647809999977710e+02 1.496709397451794985e+03 4.613062511473003156e+02
1.954859254999977622e+02 1.486988753227495636e+03 4.581473409724520138e+02
1.955070699999977535e+02 1.477334609696566531e+03 4.550160768749049112e+02
1.955282144999977447e+02 1.467746385886491680e+03 4.519121202096587808e+02
1.955493589999977360e+02 1.458223507927271612e+03 4.488351377952865278e+02
1.955705034999977272e+02 1.448765408937067150e+03 4.457848018051991517e+02
1.955916479999977184e+02 1.439371528910091229e+03 4.427607896614800893e+02
