timestep	potential_energy	temperature
0	-1686.013916	0
100000	-57718.625	3.54318738
200000	-97145.07812	3.994138718
300000	-125031.5	3.401381254
400000	-147955.0781	3.021756411
500000	-168096.9375	2.741094828
600000	-189814.9375	2.780241728
700000	-213216.5781	2.954736471
800000	-238019.2188	3.086308718
900000	-263970.0625	3.149054527
1000000	-291011.4375	3.272509098
1100000	-319610.0312	3.365247726
1200000	-351109.5	3.559629679
1300000	-384105.25	3.650537014
1400000	-418846.75	3.818980217
1500000	-452731.875	3.878842354
1600000	-486855.875	3.864953756
1700000	-521500.1875	3.883925676
1800000	-555738.8125	3.852664948
1900000	-588748.125	3.79437995
2000000	-619339.75	3.591653585
2100000	-647442.25	3.408620358
2200000	-673871	3.261479378
2300000	-696361.9375	2.990136385
2400000	-714772	2.699505091
2500000	-731689.5	2.458996058
2600000	-747725.25	2.393957376
2700000	-763068.5625	2.304659843
2800000	-775359	2.124528408
2900000	-787242.5	2.011951685
3000000	-798328.625	1.945962071
3100000	-809540.625	1.883460402
3200000	-820007	1.868362784
3300000	-829807	1.792627454
3400000	-837992.75	1.710680485
3500000	-843775.875	1.559590578
3600000	-850287.25	1.535276532
3700000	-856123.125	1.50847888
3800000	-862712.25	1.568252802
3900000	-867911.75	1.480385661
4000000	-873037.5	1.455012798
4100000	-878066.625	1.445170879
4200000	-882551.625	1.394085526
4300000	-886698.3125	1.344495058
4400000	-890418.75	1.317507267
4500000	-893600.125	1.303351045
4600000	-896567.5	1.255461812
4700000	-899889.3125	1.283478498
4800000	-902688.25	1.274427056
4900000	-905909.625	1.28336525
5000000	-908561.8125	1.226808786
5100000	-910766.25	1.207402229
5200000	-912654.125	1.177140594
5300000	-915105	1.202670693
5400000	-916984.5625	1.168069482
5500000	-918856.875	1.151050448
5600000	-920831.75	1.146495104
5700000	-922536.125	1.13806808
5800000	-924482.25	1.156372309
5900000	-925999.125	1.160835385
6000000	-927415.4375	1.136101604
6100000	-929048.1875	1.129820347
6200000	-930207.5	1.12265563
6300000	-931913.75	1.141031384
6400000	-934036.75	1.162571669
6500000	-935417.375	1.147229433
6600000	-936855.375	1.110293388
6700000	-937869.25	1.095105648
6800000	-939181.1875	1.068245411
6900000	-940372.6875	1.075078964
7000000	-941361.375	1.074040532
7100000	-942445	1.089280248
7200000	-943434.375	1.082386494
7300000	-944608.75	1.101969838
7400000	-945373.3125	1.090928793
7500000	-946447.25	1.097033501
7600000	-947237.375	1.068166018
7700000	-947863.5	1.050743103
7800000	-949035.3125	1.084012866
7900000	-949928.6875	1.076978803
8000000	-950600.5	1.052612424
8100000	-951493.4375	1.070393205
8200000	-952194.375	1.063855648
8300000	-953146.875	1.057024121
8400000	-953645	1.053821087
8500000	-954176.3125	1.057361841
8600000	-954761.125	1.049047947
8700000	-955577.5	1.059738159
8800000	-956578.125	1.081773043
8900000	-957207	1.064427733
9000000	-957831.375	1.060762167
9100000	-958953.9375	1.080422282
9200000	-959950.375	1.069074631
9300000	-960389	1.065241933
9400000	-960998.375	1.049437165
9500000	-961347.375	1.044253469
9600000	-961958.125	1.053950548
9700000	-962777.9375	1.068056345
9800000	-963102.0625	1.051732183
9900000	-963491.5	1.050757289
10000000	-964174	1.064685345
10100000	-964527.125	1.041000247
10200000	-965348.75	1.054210186
10300000	-966405.75	1.0683676
10400000	-967386.625	1.072440028
10500000	-967844.75	1.06153512
10600000	-968015	1.027681708
10700000	-968609.125	1.020412207
10800000	-968740.625	1.012741685
10900000	-968897.875	1.010591626
11000000	-969471.25	1.035634756
11100000	-969852.125	1.022474408
11200000	-970347.875	1.02656436
11300000	-970744	1.031105161
11400000	-970882.25	1.018361688
11500000	-971409.375	1.034798026
11600000	-972039.5	1.047720551
11700000	-972982	1.058472991
11800000	-973504.9375	1.055902958
11900000	-974103.0625	1.050818682
12000000	-974926.875	1.053562164
12100000	-975622.875	1.049002647
12200000	-975562.125	1.020702362
12300000	-976006.25	1.044462085
12400000	-976178.625	1.037334323
12500000	-976208.125	1.023948908
12600000	-976217.8125	1.017447829
12700000	-976671	1.03135705
12800000	-977000.375	1.030213237
12900000	-977494.8125	1.049222827
13000000	-977926.9375	1.037352204
13100000	-978666.6875	1.04981184
13200000	-979242.875	1.052205801
13300000	-979473.3125	1.031235576
13400000	-979721.25	1.03069222
13500000	-980081.875	1.027057528
13600000	-980345.8125	1.005122781
13700000	-980221.75	0.9992101789
13800000	-980300.25	0.9962701201
13900000	-980513.1875	1.010563731
14000000	-980836.25	1.010571837
14100000	-980964.25	0.9867803454
14200000	-981283	1.011835694
14300000	-981247.9375	1.015092373
14400000	-981569.0625	1.035053968
14500000	-981599.75	1.029442787
14600000	-981628.25	1.008776903
14700000	-981910.8125	1.01560533
14800000	-982180	1.006112456
14900000	-982542	1.019620061
15000000	-982484.1875	1.034411788
15100000	-982732.125	1.039241791
15200000	-983069.1875	1.03478682
15300000	-983254.75	1.025431991
15400000	-983514.125	1.025481224
15500000	-983755.5	1.018144846
15600000	-984094.75	1.011846662
15700000	-984253.5	1.016779542
15800000	-984702.5	1.02705133
15900000	-984886.75	1.015684128
16000000	-984993.5	1.017307758
16100000	-984924.4375	0.9950287938
16200000	-985259.875	1.007935405
16300000	-985217.125	1.020106673
16400000	-985526.8125	1.02804625
16500000	-985595.75	1.009063363
16600000	-985897.25	1.029165864
16700000	-986171.25	1.029593468
16800000	-986257.375	1.018874526
16900000	-986229.75	1.014245152
17000000	-986632.5	1.00797534
17100000	-986560.875	1.011621714
17200000	-986566.375	1.009491682
17300000	-986710.4375	1.009128094
17400000	-986763.5	1.008406639
17500000	-986506.625	0.9949737191
17600000	-986730.875	1.008924365
17700000	-986710.5	0.9916303158
17800000	-986805.5625	0.9997845292
17900000	-987005	0.9991919994
18000000	-986898.0625	0.9841208458
18100000	-987245.5	1.011904955
18200000	-986997.375	0.9987197518
18300000	-987410.875	1.023316503
18400000	-987913.6875	1.047636986
18500000	-988134.875	1.024789333
18600000	-988085.125	1.022974849
18700000	-988268	1.016919017
18800000	-988344.5	1.026433945
18900000	-988360.75	1.009258747
19000000	-988602.625	1.008896589
19100000	-988592.5625	1.014006376
19200000	-988428.4375	1.012520552
19300000	-988888.375	1.01309979
19400000	-989081.125	1.010205746
19500000	-989069.8125	1.029809356
19600000	-989197.125	1.036213756
19700000	-989549.875	1.033808827
19800000	-989811.125	1.043615103
19900000	-990308.5	1.033880353
20000000	-990610.75	1.025133133
20100000	-990903.875	1.028833389
20200000	-990928.625	1.032775402
20300000	-991258.3125	1.045532942
20400000	-991412.6875	1.015401602
20500000	-991581.9375	1.015803218
20600000	-991798	1.008948922
20700000	-992124.625	1.02731514
20800000	-992203.8125	1.027839065
20900000	-992195.75	1.005770206
21000000	-992432.25	1.028472662
21100000	-992377.875	1.012412667
21200000	-992665.8125	1.009303093
21300000	-992594.3125	1.008814812
21400000	-992801.9375	1.006733656
21500000	-992701.375	0.9952450395
21600000	-992811.0625	0.9931945801
21700000	-993094	1.004110217
21800000	-993152.25	1.01816833
21900000	-993189.875	1.015563488
22000000	-993351.0625	1.020712137
22100000	-993498	1.022700667
22200000	-993710.375	0.9980897903
22300000	-993845.5	1.00687027
22400000	-994169.25	1.031978369
22500000	-994505.375	1.028102875
22600000	-994835.25	1.017236352
22700000	-994833.625	1.003671885
22800000	-995116.875	1.018346071
22900000	-995143.4375	1.005648971
23000000	-995485.1875	1.017819881
23100000	-995499.375	1.002977252
23200000	-995545.5	0.9955678582
23300000	-995591.5	0.9897275567
23400000	-995566.4375	1.002978206
23500000	-995425.75	0.9948807955
23600000	-995692.875	1.020918131
23700000	-995538.4375	1.014854789
23800000	-995606.75	1.007007003
23900000	-995611	0.9959355593
24000000	-995607.1875	1.010000467
24100000	-995566.5	0.9915020466
24200000	-995780.5625	1.014137268
24300000	-995916.625	1.011908174
24400000	-996408.125	1.02034533
24500000	-996405.875	1.019409299
24600000	-996548.9375	1.007686496
24700000	-996468.375	1.006750107
24800000	-996626.125	1.005359769
24900000	-996498.0625	0.9884528518
25000000	-996613.75	1.00411737
25100000	-996525.6875	0.9970728755
25200000	-996381	0.9916511774
25300000	-996594.8125	1.007754803
25400000	-996697.125	1.018812776
25500000	-996666.625	1.000926256
25600000	-996743.875	0.9987540841
25700000	-996850.375	1.002525806
25800000	-996754.5625	1.009884238
25900000	-996592.6875	1.000338197
26000000	-996753.0625	1.005326629
26100000	-996854.25	1.011560321
26200000	-996837.9375	0.995729208
26300000	-996923.875	1.002450943
26400000	-996747.125	0.9954457283
26500000	-997026.375	1.007048607
26600000	-997089.375	1.01860261
26700000	-996755	0.998906076
26800000	-996978.625	1.001292229
26900000	-997007.5625	0.9916380644
27000000	-996988.6875	0.9873326421
27100000	-996926.875	0.9933444858
27200000	-996984.875	1.00078547
27300000	-997172.8125	0.9849631786
27400000	-997152.5	1.012718916
27500000	-997023.0625	1.005839705
27600000	-996846.875	1.008860707
27700000	-996829.875	1.013536096
27800000	-996790.5	0.9970030189
27900000	-997011.875	1.007662773
28000000	-997090.75	0.9885125756
28100000	-997086.375	1.011681676
28200000	-997102.625	1.010841012
28300000	-997099.375	1.004348278
28400000	-996930.0625	0.9940361381
28500000	-997150.875	1.004307032
28600000	-997259.875	1.005246878
28700000	-997262.75	0.997699976
28800000	-997337.5	1.014817476
28900000	-997514.5	1.011854053
29000000	-997353.375	0.9962956309
29100000	-997457.9375	0.986864388
29200000	-997513.3125	0.9833737016
29300000	-997636.5625	0.9977570176
29400000	-997633.8125	1.001901507
29500000	-997696.375	0.9871991873
29600000	-997624.3125	0.9861204624
29700000	-997777.8125	0.9927060008
29800000	-997938.1875	1.011174679
29900000	-997839.125	0.9988692403
30000000	-997783.1875	0.9983421564
30100000	-997777.875	0.9992271066
30200000	-997774.5625	0.9906627536
30300000	-997734.6875	0.9996187091
30400000	-997767.3125	1.003252506
30500000	-997731.25	0.999753058
30600000	-997855.625	1.029808521
30700000	-997776.625	1.010850191
30800000	-997790.9375	1.010697007
30900000	-997872.375	1.022698402
31000000	-997979.375	1.01987195
31100000	-998060.25	1.022043228
31200000	-998180.8125	1.006890297
31300000	-998137.5625	0.9991074204
31400000	-998246.125	1.003058314
31500000	-998197.625	1.009608626
31600000	-998233.5	1.024620652
31700000	-998222.625	1.006612778
31800000	-998396.5	1.019619465
31900000	-998502.375	1.007679582
32000000	-998330.75	1.004311562
32100000	-998530	1.002224803
32200000	-998424	0.9987277389
32300000	-998848.3125	1.014615417
32400000	-998617.9375	0.996592164
32500000	-998788.1875	1.012052178
32600000	-998811.9375	1.015723705
32700000	-998927.6875	1.003295779
32800000	-999166.75	1.007088184
32900000	-998982.5625	1.009595037
33000000	-998977.875	1.014073968
33100000	-999272.625	1.01416707
33200000	-999440.375	1.022588611
33300000	-999477	0.9883058667
33400000	-999700.875	1.012357354
33500000	-999725	1.014564514
33600000	-999740.625	1.013177752
33700000	-999788	1.007502079
33800000	-1000014.688	1.015303969
33900000	-1000045.25	1.019761205
34000000	-999987.75	1.002131462
34100000	-1000112.625	1.015066147
34200000	-1000167.875	1.022635341
34300000	-1000113.562	1.00838232
34400000	-1000335.438	1.012910843
34500000	-1000316.812	1.02030015
34600000	-1000535.875	1.021532655
34700000	-1000747.938	1.010518193
34800000	-1000892.438	1.011397958
34900000	-1000892.5	1.016091943
35000000	-1000944.938	1.006563425
35100000	-1000961.625	1.009254694
35200000	-1001095.562	1.007117629
35300000	-1001239.125	1.0060426
35400000	-1001009.125	0.9976212978
35500000	-1000966.875	1.002665281
35600000	-1001004.625	1.00187242
35700000	-1001140.875	1.01162827
35800000	-1001066.688	1.005121469
35900000	-1001216.75	1.009881139
36000000	-1001393.875	1.010448456
36100000	-1001434.375	1.01964581
36200000	-1001471.75	1.019374609
36300000	-1001495.125	1.012061954
36400000	-1001562.125	1.014223099
36500000	-1001543.375	1.027020454
36600000	-1001624.625	1.009588838
36700000	-1001742.875	1.023103952
36800000	-1001647.312	0.9999235272
36900000	-1001883.5	1.003249764
37000000	-1001851.688	0.9976756573
37100000	-1002035.75	1.01342392
37200000	-1001886.375	0.9902437329
37300000	-1001761.188	0.9962038994
37400000	-1002051.5	1.009724379
37500000	-1001870.438	0.9949498773
37600000	-1001986.375	0.9903841019
37700000	-1002012.625	0.9948857427
37800000	-1001957.625	1.004015446
37900000	-1002052.188	1.013804555
38000000	-1002166.125	1.018227577
38100000	-1002035.062	0.9959438443
38200000	-1002219.062	1.000065565
38300000	-1002208.188	1.002831101
38400000	-1002271.188	0.9972193837
38500000	-1002386.625	1.022705317
38600000	-1002441.75	1.021658897
38700000	-1002311.438	1.007290959
38800000	-1002193.625	1.004509449
38900000	-1002393.625	1.005523086
39000000	-1002369.25	1.014850616
39100000	-1002248.5	1.005661249
39200000	-1002306.562	1.008855343
39300000	-1002460.25	1.006510973
39400000	-1002398.438	0.9969273806
39500000	-1002299.125	0.9953920841
39600000	-1002349.75	1.009055018
39700000	-1002402.75	1.012799501
39800000	-1002644.125	1.01269424
39900000	-1002613	1.012507319
40000000	-1002668.25	1.021077752
40100000	-1002628.25	1.011205792
40200000	-1002632	1.004691839
40300000	-1002844.625	1.004451632
40400000	-1002853.062	1.0017308
40500000	-1002831.625	0.9956719279
40600000	-1002895.938	0.9777483344
40700000	-1002905.25	0.9970481992
40800000	-1003116.938	1.026516914
40900000	-1002911.812	1.00417304
41000000	-1002915.438	1.001470089
41100000	-1003095.562	1.026482344
41200000	-1002983.625	1.001318097
41300000	-1002974.312	0.9961832762
41400000	-1003076.062	1.001348853
41500000	-1003163.688	1.016800046
41600000	-1003210.562	1.028559208
41700000	-1003175.938	1.021747589
41800000	-1003224.688	1.028098822
41900000	-1003479.312	1.02437973
42000000	-1003420.562	1.002761006
42100000	-1003582.5	1.007798076
42200000	-1003576.312	0.9989280105
42300000	-1003678.125	0.9907193184
42400000	-1003711.438	1.004054189
42500000	-1003996.938	1.005921006
42600000	-1003788.25	0.988312602
42700000	-1003890	0.9853992462
42800000	-1003910.062	0.9872535467
42900000	-1003961.875	1.006305218
43000000	-1003540.625	0.9972510338
43100000	-1003793.188	1.031808257
43200000	-1004046.875	1.015457153
43300000	-1004310.188	1.014603496
43400000	-1004266.812	1.033736348
43500000	-1004195.25	1.016746163
43600000	-1004355.688	1.015187383
43700000	-1004339.875	0.9937500358
43800000	-1004451.25	0.9958022237
43900000	-1004376.062	1.002235055
44000000	-1004425.062	0.9934410453
44100000	-1004232.375	1.003275037
44200000	-1004340.062	1.010273576
44300000	-1004387.812	1.013344526
44400000	-1004309.625	1.002145529
44500000	-1004233.75	1.013162017
44600000	-1004082	1.0083462
44700000	-1004166	1.007237911
44800000	-1004259.5	1.011667967
44900000	-1004328.812	1.008489728
45000000	-1004362.625	1.015269876
45100000	-1004249.375	1.008996367
45200000	-1004192.375	1.010111809
45300000	-1004185.625	1.005658269
45400000	-1004264.188	1.004377723
45500000	-1004396.25	1.003870726
45600000	-1004473.375	1.02223897
45700000	-1004394.375	1.009852529
45800000	-1004827.688	1.013507366
45900000	-1004861.25	1.003466487
46000000	-1004640.188	1.013849258
46100000	-1004824.25	0.9969412684
46200000	-1004796.875	0.9998110533
46300000	-1004685.312	1.004513979
46400000	-1004728.812	1.016475677
46500000	-1004634.438	1.003082395
46600000	-1004769.5	1.001675606
46700000	-1004717.312	0.9978191257
46800000	-1004856.625	0.9975183606
46900000	-1004633.688	0.9990715981
47000000	-1004925.375	1.011718035
47100000	-1005101.438	1.003066659
47200000	-1005093.25	1.000203252
47300000	-1005086.25	1.008444786
47400000	-1005194.5	1.001488805
47500000	-1005062.75	1.014524102
47600000	-1005313.625	1.00395906
47700000	-1005185.75	1.002684951
47800000	-1005248	0.9968942404
47900000	-1005365.875	0.9975081086
48000000	-1005340.25	0.9828316569
48100000	-1005435.688	1.007765412
48200000	-1005373.125	0.9922804832
48300000	-1005483.375	1.000950456
48400000	-1005550.75	0.9907349348
48500000	-1005572.5	0.9983607531
48600000	-1005598.375	0.9970723987
48700000	-1005778	0.9972436428
48800000	-1005687.375	0.9941390157
48900000	-1005678.688	0.9979320168
49000000	-1005618.5	1.009312868
49100000	-1005661.438	1.014582276
49200000	-1005814.25	1.01203227
49300000	-1005642.188	1.003754139
49400000	-1005681.375	0.9889808297
49500000	-1005916.125	1.006327868
49600000	-1005766.625	1.000372767
49700000	-1005938.188	1.013243318
49800000	-1005937.125	1.004445672
49900000	-1006178.5	1.013874888
50000000	-1005993.375	1.00428164
50100000	-1005930.5	0.9838244915
50200000	-1006040	1.00559938
50300000	-1005813.375	0.9961634278
50400000	-1006049.75	1.000000834
50500000	-1005967	0.9987996221
50600000	-1006046.625	1.002869606
50700000	-1005953.688	1.008005857
50800000	-1005747.688	0.9961107373
50900000	-1006088.875	1.016633868
51000000	-1006205.062	0.9933367968
51100000	-1006338.875	1.003914952
51200000	-1006184.875	0.9820780754
51300000	-1006331.062	0.9993219376
51400000	-1006256	1.009246945
51500000	-1006228.688	1.000177741
51600000	-1006304.5	0.9904569387
51700000	-1006179.375	0.9821133018
51800000	-1006128.75	0.9899278879
51900000	-1006106.188	0.9899123907
52000000	-1006255.75	0.9858945012
52100000	-1006371.625	0.9954387546
52200000	-1006297.25	1.000002623
52300000	-1006400.562	1.011891961
52400000	-1006229	0.9913254976
52500000	-1006316.875	1.007539511
52600000	-1006319.125	1.006753802
52700000	-1006416.5	1.007557273
52800000	-1006395.875	1.004424334
52900000	-1006334.562	0.9868730903
53000000	-1006417.75	0.9957416654
53100000	-1006446.062	0.9987698793
53200000	-1006567.25	1.000341535
53300000	-1006656	0.9985485673
53400000	-1006694.75	1.022237062
53500000	-1006690.812	0.9970703721
53600000	-1006798	1.00876081
53700000	-1006804.75	1.015167952
53800000	-1006591.312	1.017387271
53900000	-1006680.188	1.005299926
54000000	-1006681.75	1.008623838
54100000	-1006483.75	0.992043972
54200000	-1006654.812	1.002692819
54300000	-1006760.062	1.000363827
54400000	-1006688.438	1.007111549
54500000	-1006793.312	1.00853622
54600000	-1006745.75	1.011220813
54700000	-1006715.625	1.01879847
54800000	-1006666.438	1.001927257
54900000	-1006739.125	1.001263142
55000000	-1006633.688	0.9966136217
55100000	-1006760.625	1.013966441
55200000	-1006792.062	1.019190788
55300000	-1006721.812	0.9990805984
55400000	-1006737.812	1.007785678
55500000	-1006599.25	1.010007024
55600000	-1006804.125	1.013221741
55700000	-1006812	1.004689813
55800000	-1006870.562	1.014474869
55900000	-1006832.188	0.9954113364
56000000	-1006873.062	1.003701091
56100000	-1006645.625	0.9928942323
56200000	-1006824.25	1.010165453
56300000	-1006744.875	1.007987261
56400000	-1006871.25	0.9971981049
56500000	-1006967.625	0.9922146201
56600000	-1006935.188	1.006094098
56700000	-1006935.625	0.9928843975
56800000	-1006737.375	0.9875986576
56900000	-1006878.25	1.007289052
57000000	-1006845.25	1.007467508
57100000	-1006888.5	1.012073517
57200000	-1006832.5	0.9916080236
57300000	-1006910.188	1.002069235
57400000	-1007050.5	1.006613255
57500000	-1006928.312	1.01507926
57600000	-1006892.938	0.996534586
57700000	-1006891.062	0.9898316264
57800000	-1006943.562	1.002486467
57900000	-1007155	1.003383636
58000000	-1007319.25	1.004360795
58100000	-1007233.75	1.002868056
58200000	-1007133.5	0.9917836189
58300000	-1007294.875	1.011341214
58400000	-1007210.438	0.9968001842
58500000	-1007403.438	0.9986923337
58600000	-1007381	0.9908639789
58700000	-1007351.562	0.9864231348
58800000	-1007244.25	0.9926733971
58900000	-1007365.5	1.008017182
59000000	-1007118.562	0.9837574363
59100000	-1007342.875	0.9854272604
59200000	-1007310.875	0.9906776547
59300000	-1007305.812	0.9949482083
59400000	-1007166.375	0.9969416857
59500000	-1007274.938	0.9990486503
59600000	-1007327.938	0.9932593107
59700000	-1007275.625	0.9991260171
59800000	-1007261.5	1.009840608
59900000	-1007294.625	1.021058798
60000000	-1007416.75	1.00714016
60100000	-1007412.25	0.9995604157
60200000	-1007466.625	1.011359692
60300000	-1007358.5	0.9897537231
60400000	-1007174	0.9760947227
60500000	-1007289.125	0.9913924336
60600000	-1007320.125	1.01452291
