timestep	potential_energy	temperature
0	2431821.25	0
50000	2431541	0.3330212831
100000	2431444	0.5495004058
150000	2431397	0.6871616244
200000	2431263.5	0.779517591
250000	2431154	0.8619712591
300000	2431040	0.9043204188
350000	2430948.5	0.9417380691
400000	2430823	0.9628096819
450000	2430749.25	0.9857199192
500000	2430620.5	1.003879905
550000	2430586	1.013242006
600000	2430507.5	1.013061404
650000	2430404	1.005997777
700000	2430285.75	1.016012788
750000	2430147	1.034582019
800000	2430054.5	1.045358419
850000	2429923.5	1.047691464
900000	2429872.5	1.037514567
950000	2429812	1.03926599
1000000	2429723.5	1.038944006
1050000	2429662	1.030569196
1100000	2429532	1.037167788
1150000	2429489.75	1.012304664
1200000	2429341.5	1.011378646
1250000	2429225.75	1.009341836
1300000	2429081	1.017881274
1350000	2428946	1.018087387
1400000	2428797	1.018020391
1450000	2428749.75	1.004086137
1500000	2428652.5	1.013320684
1550000	2428627.75	1.009763002
1600000	2428490.5	1.024893165
1650000	2428445.25	1.028038979
1700000	2428388	1.013221502
1750000	2428322.5	1.012164474
1800000	2428230	1.028370142
1850000	2428159	1.027786255
1900000	2428076.25	1.025667667
1950000	2428023.5	1.014253616
2000000	2427969.75	1.023543477
2050000	2427897.5	1.02856195
2100000	2427728.75	1.032226682
2150000	2427632.75	1.031771421
2200000	2427602.5	1.023903966
2250000	2427493	1.02256155
2300000	2427414	1.028448224
2350000	2427335.75	1.02937603
2400000	2427272.25	1.037944198
2450000	2427160.25	1.037921786
2500000	2427086	1.035006881
2550000	2427046.25	1.020745516
2600000	2427002.75	1.024376154
2650000	2426880.5	1.024400473
2700000	2426820.75	1.027628303
2750000	2426731	1.014975548
2800000	2426637	1.020353675
2850000	2426530.5	1.012432694
2900000	2426383	1.021209121
2950000	2426413.25	1.023229122
3000000	2426244.25	1.023813725
3050000	2426101.75	1.030737162
3100000	2426130	1.023431659
3150000	2426021.75	1.016755819
3200000	2425910	1.014855623
3250000	2425787.5	1.013299465
3300000	2425747	1.020953298
3350000	2425663.75	1.020413041
3400000	2425569	1.021379113
3450000	2425555	1.027116776
3500000	2425457.5	1.01972115
3550000	2425343.75	1.019911289
3600000	2425362	1.014996409
3650000	2425263.5	1.018983126
3700000	2425128	1.013844848
3750000	2425095	1.03103435
3800000	2424994.75	1.027539253
3850000	2424920	1.026286006
3900000	2424928.25	1.017170191
3950000	2424805.5	1.031313539
4000000	2424793.5	1.028546095
4050000	2424571	1.045165539
4100000	2424602	1.038951039
4150000	2424517	1.03295958
4200000	2424428.75	1.028796077
4250000	2424387.25	1.027892113
4300000	2424291.5	1.027855039
4350000	2424249.5	1.018738747
4400000	2424223	1.015720129
4450000	2424093.5	1.024086833
4500000	2424044.5	1.019553304
4550000	2423920.25	1.020167112
4600000	2423843.25	1.01899147
4650000	2423776.25	1.012481928
4700000	2423688.25	1.010391951
4750000	2423689.5	1.014087915
4800000	2423663.5	1.016219854
4850000	2423567.5	1.009494781
4900000	2423507	1.013106823
4950000	2423525.5	1.018639326
5000000	2423451	1.023886919
5050000	2423431.75	1.0217098
5100000	2423278.75	1.035969615
5150000	2423238.5	1.031845808
5200000	2423126.5	1.027054667
5250000	2423063.25	1.027977228
5300000	2423011.5	1.014606833
5350000	2422885	1.015788436
5400000	2422954.5	1.009624362
5450000	2422876	0.9994680882
5500000	2422822.25	1.007163525
5550000	2422755.5	1.00818634
5600000	2422816	0.9971004725
5650000	2422699.5	0.9893730283
5700000	2422643.25	1.00874126
5750000	2422564.5	1.013449311
5800000	2422601	0.994253397
5850000	2422496.5	1.00556767
5900000	2422345.5	1.010742664
5950000	2422427.5	1.007175326
6000000	2422322.5	1.016841769
6050000	2422243.75	1.015177965
6100000	2422274	1.007551908
6150000	2422204.5	1.014865398
6200000	2422137	1.020277262
6250000	2422127	1.022638083
6300000	2422080.5	1.014497876
6350000	2422085.5	1.011382103
6400000	2421956	1.018175364
6450000	2421899.5	1.02515614
6500000	2421874.5	1.027190328
6550000	2421802.75	1.022659779
6600000	2421690.25	1.029092669
6650000	2421753.75	1.006116033
6700000	2421634	1.012283325
6750000	2421560.5	1.006864905
6800000	2421501.75	1.007126689
6850000	2421470	1.014049888
6900000	2421327.5	1.017352104
6950000	2421245.5	1.01820004
7000000	2421223.5	1.022825003
7050000	2421108.5	1.032644153
7100000	2421137.25	1.004939198
7150000	2421105	1.008845568
7200000	2420989	1.001772761
7250000	2420971	0.999612391
7300000	2420916	0.9951680899
7350000	2420926.75	1.00293541
7400000	2420935	1.000384688
7450000	2420803.5	1.02086091
7500000	2420828	1.016857982
7550000	2420816.5	1.020612955
7600000	2420819.5	1.022575855
7650000	2420686	1.015934587
7700000	2420741	1.000944853
7750000	2420698.5	1.014869332
7800000	2420588	1.033523917
7850000	2420460.75	1.034002304
7900000	2420456.75	1.026185751
7950000	2420430	1.01875639
8000000	2420348	1.022565246
8050000	2420352.25	1.007467866
8100000	2420318	0.9946806431
8150000	2420252.5	1.002208352
8200000	2420177	1.018892407
8250000	2420128.25	1.01157093
8300000	2420118.25	0.9990348816
8350000	2420063.25	1.005593657
8400000	2419950.5	1.011296272
8450000	2420089	1.00575006
8500000	2419944.5	1.016284823
8550000	2420002.5	0.9988375306
8600000	2419956.5	0.9952821136
8650000	2419861	0.9991723299
8700000	2419874	0.9955702424
8750000	2419820.5	1.004367948
8800000	2419648.5	1.010953069
8850000	2419691	1.011853576
8900000	2419683.75	1.011783004
8950000	2419598	1.008563638
9000000	2419651	1.001313806
9050000	2419617.25	0.9942113161
9100000	2419586.5	1.000303864
9150000	2419578	1.006000876
9200000	2419518.5	1.005891442
9250000	2419524	1.005811572
9300000	2419430.75	1.004460216
9350000	2419382	1.002798796
9400000	2419316.5	1.009931326
9450000	2419271	0.9905541539
9500000	2419252.5	0.9978243113
9550000	2419261	1.00472331
9600000	2419219.5	0.9880614877
9650000	2419083.5	1.006910324
9700000	2419065.5	1.008767366
9750000	2419025.5	1.008387446
9800000	2418989.5	1.020778775
9850000	2418935.25	1.022121787
9900000	2418811	1.02004528
9950000	2418710.75	1.019422889
10000000	2418692.75	1.016202688
10050000	2418699.25	1.021213889
10100000	2418650.5	1.015623212
10150000	2418659	1.00413239
10200000	2418624.5	1.006386161
10250000	2418519.5	1.01867795
10300000	2418498	1.025866866
10350000	2418528.75	1.014436007
10400000	2418494.75	1.009833694
10450000	2418537.75	1.004903078
10500000	2418556	1.009145379
10550000	2418505.5	1.011518836
10600000	2418361.25	1.003740191
10650000	2418418	1.000560641
10700000	2418417	1.011270523
10750000	2418440	0.9984472394
10800000	2418367.5	1.006333947
10850000	2418384	1.013244867
10900000	2418332	1.017332315
10950000	2418330.5	1.009375811
11000000	2418291.5	1.010267735
11050000	2418239	1.015777826
11100000	2418156.5	1.02761364
11150000	2418224.25	1.011717558
11200000	2418190.25	1.007738709
11250000	2418122.5	1.018036842
11300000	2418085	1.018407941
11350000	2418080.5	1.028288484
11400000	2418173	1.012603879
11450000	2417984	1.028307438
11500000	2417969	1.019132614
11550000	2417871.75	1.022297859
11600000	2417921.5	1.003854513
11650000	2417922	1.001055479
11700000	2417844	1.00900209
11750000	2417899	1.001835942
11800000	2417875.75	1.011374235
11850000	2417886.5	0.9952824712
11900000	2417735	1.004999161
11950000	2417672.25	1.012614727
12000000	2417724	1.008985281
12050000	2417785	0.9934675694
12100000	2417682	1.003977418
12150000	2417728.25	1.002069235
12200000	2417646	1.007905006
12250000	2417585.5	1.007968545
12300000	2417582.5	1.010404348
12350000	2417601.75	0.9972784519
12400000	2417574.5	1.005696297
12450000	2417517.5	1.012289762
12500000	2417516.5	1.009915709
12550000	2417492.75	1.009206533
12600000	2417370.75	1.020145774
12650000	2417334.5	1.007450223
12700000	2417264.5	1.020322919
12750000	2417305.5	1.010030389
12800000	2417213	1.01500392
12850000	2417220	1.003358006
12900000	2417276.5	1.005072951
12950000	2417191.5	1.017952204
13000000	2417232.5	1.010579467
13050000	2417257	1.000918508
13100000	2417254.75	0.9956179857
13150000	2417278.25	0.9896207452
13200000	2417220	0.9990990162
13250000	2417162	0.9978200793
13300000	2417150.5	0.9941017628
13350000	2417157.5	1.004179001
13400000	2417059.75	1.004551053
13450000	2417091.25	1.01380527
13500000	2417139	1.013872743
13550000	2417132.5	1.016285777
13600000	2417111	1.0219872
13650000	2417200.5	1.018122673
13700000	2417132.5	1.005386353
13750000	2417146.5	1.000010133
13800000	2417203.25	0.9966146946
13850000	2417186	1.005884171
13900000	2417132	1.012153864
13950000	2417190	0.9978693724
14000000	2417075.75	0.9938079119
14050000	2417089.5	0.9855696559
14100000	2417119.5	0.9876738191
14150000	2417076.5	0.9980364442
14200000	2416976.5	1.010548711
14250000	2417014	1.015961885
14300000	2416905.5	1.016794682
14350000	2416950.25	1.015132785
14400000	2416913	1.016563773
14450000	2416827.5	1.009106874
14500000	2416791.5	1.017107487
14550000	2416690.5	1.02487576
14600000	2416796.5	1.031650305
14650000	2416679.5	1.0388484
14700000	2416709.5	1.028524518
14750000	2416783.25	1.019348145
14800000	2416807.75	1.008189201
14850000	2416725.25	1.003020048
14900000	2416736	0.9919218421
14950000	2416609.75	0.9970340133
15000000	2416615.25	0.9923349023
15050000	2416585.5	0.9817814231
15100000	2416575.75	0.9788348079
15150000	2416475	0.983744204
15200000	2416459.5	0.9944591522
15250000	2416515	0.9948987365
15300000	2416586	1.008910656
15350000	2416663.5	0.9952238202
15400000	2416556.25	0.9960324168
15450000	2416603	1.005901217
15500000	2416473	1.017583013
15550000	2416560	1.000995278
15600000	2416588.75	0.9959409833
15650000	2416495	1.00570631
15700000	2416521.25	0.9978161454
15750000	2416484	1.003075361
15800000	2416541.75	0.9797543287
15850000	2416524.75	0.9931511879
15900000	2416436.5	1.013728738
15950000	2416416.5	1.011106253
16000000	2416467.25	1.012445331
16050000	2416487	1.005378008
16100000	2416405.75	1.004229665
16150000	2416270.75	1.016388178
16200000	2416339.5	1.004514813
16250000	2416348	1.00232935
16300000	2416311.25	0.9979466796
16350000	2416301.5	1.002826214
16400000	2416302	0.9989665747
16450000	2416280.75	1.006893992
16500000	2416305	0.9980766773
16550000	2416292.75	1.013469934
16600000	2416244	0.9959416986
16650000	2416323.25	0.9753578305
16700000	2416195.25	0.9932727218
16750000	2416136	1.003421187
16800000	2416061.5	1.005501628
16850000	2416155	0.9982327819
16900000	2416124.5	1.007490873
16950000	2416134	1.001972556
17000000	2416081.5	0.9942158461
17050000	2416124.5	0.9897688627
17100000	2416080	0.9989429712
17150000	2416021	1.020079017
17200000	2416157	1.01526165
17250000	2416143	1.017429233
17300000	2416140.5	1.014690399
17350000	2416113	1.012536049
17400000	2416069.75	1.015504837
17450000	2416014	1.005881429
17500000	2416023.75	1.003436685
17550000	2415942	1.012661695
17600000	2415896.5	1.008818984
17650000	2416015	1.00442946
17700000	2415949	0.9999048114
17750000	2416156.25	0.989828527
17800000	2415986	1.015266061
17850000	2415991	0.9995192289
17900000	2416014.75	0.9901362062
17950000	2416041.5	0.9871661067
18000000	2415924	1.003558278
18050000	2415900	1.004512072
18100000	2415911	1.003991365
18150000	2415834.5	1.003736615
18200000	2415893.25	1.000417709
18250000	2415847	1.013266683
18300000	2415766	1.035107732
18350000	2415827.25	1.033039451
18400000	2415828	1.025795341
18450000	2415824.5	1.007101893
18500000	2415876.5	1.010657668
18550000	2415792.5	1.010222793
18600000	2415740	1.026069641
18650000	2415714.75	1.02431345
18700000	2415714	1.027273536
18750000	2415709.5	1.018815875
18800000	2415683.75	1.016156316
18850000	2415711.25	1.015124798
18900000	2415617.75	1.014143944
18950000	2415687.5	1.005528569
19000000	2415583	1.013571024
19050000	2415610.75	1.019738078
19100000	2415536.25	1.010953665
19150000	2415579	1.007940412
19200000	2415613.25	1.002107739
19250000	2415558.25	1.003105998
19300000	2415617.75	1.003846288
19350000	2415629.5	1.009139657
19400000	2415601	1.010703206
19450000	2415676.5	0.9966554642
19500000	2415680	1.000301361
19550000	2415635	1.017712951
19600000	2415586.75	1.006861329
19650000	2415544	1.012269974
19700000	2415545.75	1.001624346
19750000	2415438.5	1.011042595
19800000	2415498.5	0.9996048808
19850000	2415441	1.004936934
19900000	2415356	1.016424298
19950000	2415279	1.019649982
20000000	2415250	1.009836674
20050000	2415201.5	1.001515985
20100000	2415139	0.9995855689
20150000	2415169.5	0.9881168008
20200000	2415140	1.000761986
20250000	2415197	0.9960569143
20300000	2415140.75	0.994553864
20350000	2415141.25	0.9930590391
20400000	2415010	1.000634193
20450000	2415013.5	0.9958010912
20500000	2414977.5	0.9974344373
20550000	2414943	1.000040174
20600000	2414973.5	0.9876230955
20650000	2415016.75	1.002284527
20700000	2415005	1.002843976
20750000	2415043	1.008410931
20800000	2415023	1.001587987
20850000	2414957	1.013560772
20900000	2414888.25	1.016599059
20950000	2414939.75	1.002228498
21000000	2414906.5	1.008806467
21050000	2414967.25	1.005719662
21100000	2414879.75	1.011671662
21150000	2414823.75	1.002928734
21200000	2414736.25	1.008035302
21250000	2414769	1.004753709
21300000	2414793	0.9927531481
21350000	2414821.25	0.9838837385
21400000	2414722.5	1.005500793
21450000	2414783	0.9918342233
21500000	2414712.25	0.991957128
21550000	2414675	0.9916630983
21600000	2414651.5	0.9924641848
21650000	2414582.75	0.999006629
21700000	2414643	0.9962709546
21750000	2414668.25	0.9956165552
21800000	2414594	0.9993675947
21850000	2414638.75	0.9918192029
21900000	2414525	0.9893243313
21950000	2414528.25	0.9919233918
22000000	2414564.25	0.9868295789
22050000	2414576	0.996306181
22100000	2414677	0.9940971136
22150000	2414536	1.003673911
22200000	2414561	0.993745327
22250000	2414471.75	1.001600623
22300000	2414513.5	1.002125859
22350000	2414447	1.00533855
22400000	2414527.75	0.9997007847
22450000	2414538.25	1.006323218
22500000	2414511	1.00792551
22550000	2414450	1.00104475
22600000	2414492	0.9948559403
22650000	2414456.25	1.007931709
22700000	2414420	1.003417015
22750000	2414485.5	0.987003088
22800000	2414492	0.987719655
22850000	2414443	0.9986431599
22900000	2414425	1.014236569
22950000	2414418.25	1.016008377
23000000	2414500.5	1.005432844
23050000	2414500.5	0.9928808808
23100000	2414522	1.007076859
23150000	2414589.75	1.007022977
23200000	2414613.5	0.9998268485
23250000	2414611.25	1.007132053
23300000	2414660.5	1.013435841
23350000	2414646.75	1.006109834
23400000	2414590	1.011984229
23450000	2414689	1.009624839
23500000	2414743	0.9996492863
23550000	2414702	1.010481
23600000	2414750.25	1.006944895
23650000	2414695.25	0.9977684021
23700000	2414664	0.9962503314
23750000	2414667.25	0.9933846593
23800000	2414627	0.9951763749
23850000	2414598.5	1.01000011
23900000	2414578.5	1.013469458
23950000	2414630.25	1.009329081
24000000	2414630	0.9974033833
24050000	2414628.5	0.9942443371
24100000	2414656	0.9960954785
24150000	2414587.75	0.9934776425
24200000	2414541.25	1.007934332
24250000	2414578.5	1.007107496
24300000	2414528.25	1.022849441
24350000	2414495.25	1.024731636
24400000	2414507	1.019130945
24450000	2414613	1.020623446
24500000	2414738.75	0.9992796183
24550000	2414674	0.999162674
24600000	2414578	1.014988542
24650000	2414565.5	1.011955619
24700000	2414589.5	1.004761219
24750000	2414502	1.011623263
24800000	2414421.5	1.015131474
24850000	2414338.5	1.013202786
24900000	2414291	1.003539085
24950000	2414310.5	1.001982689
25000000	2414247.25	1.002865911
25050000	2414334.25	1.012979746
25100000	2414363.75	1.007814407
25150000	2414319.75	1.004644156
25200000	2414365.25	0.9982703924
25250000	2414305	1.007175207
25300000	2414206	1.016625166
25350000	2414259	1.001698375
25400000	2414363.5	1.000744343
25450000	2414325.25	1.01203227
25500000	2414316	1.009926081
25550000	2414224.5	1.006340623
25600000	2414093	1.009271383
25650000	2414191.5	1.000873566
25700000	2414038.5	1.02256763
25750000	2414119	0.995189786
25800000	2414078.75	0.9983215332
25850000	2414077.5	1.00102973
25900000	2413959.25	1.016644835
25950000	2413970	1.015840292
26000000	2413922.25	1.017225146
26050000	2413948.5	1.016218662
26100000	2413881	1.014074922
26150000	2413932	0.9973908067
26200000	2414053	0.9874665141
26250000	2413995	0.9951754212
26300000	2413926.25	0.992294848
26350000	2413953.25	0.9933973551
26400000	2413955	0.9876669645
26450000	2413982	0.9872130156
26500000	2413927	0.9905064106
26550000	2413981.25	0.995473206
26600000	2413983.25	0.992420733
26650000	2413932.75	1.000135303
26700000	2413974.5	0.9913910627
26750000	2413849.5	1.012457371
26800000	2413993.25	0.9924551249
26850000	2413999	0.9914788008
26900000	2413957.25	1.010436058
26950000	2414005	1.00205338
27000000	2413984.25	0.9995533824
27050000	2413873	1.000996709
27100000	2413837.25	1.009205461
27150000	2413892	1.006911635
27200000	2413833	1.004083157
27250000	2413836.5	1.005003214
27300000	2413767.5	1.010883808
27350000	2413766.5	1.00796473
27400000	2413816	0.9999347925
27450000	2413874	0.9887697697
27500000	2413835	0.9989888668
27550000	2413925	0.9985410571
27600000	2413786	1.01589179
27650000	2413732.25	1.008872509
27700000	2413811	0.9934440851
27750000	2413749.5	0.9894384742
27800000	2413617.75	0.9994800687
27850000	2413611.25	1.003656864
27900000	2413715	1.003893495
27950000	2413608.5	1.007120132
28000000	2413626	0.9961677194
28050000	2413612.5	0.9976047873
28100000	2413657.5	0.9902562499
28150000	2413571.75	0.9904677272
28200000	2413533.75	1.000166416
28250000	2413556	1.000701904
28300000	2413551.5	0.9897301793
28350000	2413621.5	0.983697176
28400000	2413599.5	0.9809014797
28450000	2413527.75	0.995090127
28500000	2413498.5	0.9927771688
28550000	2413506	0.9792849422
28600000	2413646.5	0.978777945
28650000	2413544.5	0.9941162467
28700000	2413676.75	0.9862072468
28750000	2413698.25	0.989902854
28800000	2413596.5	0.9950294495
28850000	2413609	0.9995788336
28900000	2413607	0.9942436814
28950000	2413733.25	0.9877194166
29000000	2413625	1.00627315
29050000	2413671	1.011241913
29100000	2413717.25	1.009925723
29150000	2413664.5	0.9985345006
29200000	2413694.25	0.9916031361
29250000	2413634	0.9983665943
29300000	2413548.5	0.9954869747
29350000	2413462.75	0.9890751839
29400000	2413455	0.9910961986
29450000	2413561	0.9846460819
29500000	2413527	0.9865130782
29550000	2413504	0.9938993454
29600000	2413563	0.9888602495
29650000	2413607.75	0.9822697639
29700000	2413545.5	1.001935005
29750000	2413579	0.9931437373
29800000	2413578	0.9943864942
29850000	2413451.75	1.007201552
29900000	2413580.5	0.9926234484
29950000	2413555.5	0.9909263253
30000000	2413615.5	0.9862016439
30050000	2413525.5	1.005679607
30100000	2413574	1.0131042
30150000	2413649.75	1.015204906
30200000	2413692.75	1.002000093
30250000	2413622.75	1.008595824
30300000	2413663.25	1.003819585
30350000	2413718.25	0.9988213181
30400000	2413717.75	1.005424738
30450000	2413738.5	1.005146027
30500000	2413762.25	1.010093808
30550000	2413844.75	1.009014845
30600000	2413820.5	1.004796982
30650000	2413654.75	1.011794448
30700000	2413693.75	1.00682795
30750000	2413660	1.010322094
30800000	2413660.5	1.001713634
30850000	2413727.75	0.9897894859
30900000	2413709.5	1.000373125
30950000	2413681.5	1.00449121
31000000	2413661	0.9955583811
31050000	2413590.25	1.012565613
31100000	2413715.5	0.9966436028
31150000	2413672.75	0.9967741966
31200000	2413724	0.9873763919
31250000	2413762.5	0.9880895019
31300000	2413719.75	1.002057314
31350000	2413628.75	1.005942822
31400000	2413574.5	1.017329454
31450000	2413627.25	1.01453805
31500000	2413596.25	1.005542159
31550000	2413695	1.012699246
31600000	2413783.5	0.9955381155
31650000	2413690.5	1.004722238
31700000	2413661	1.007542253
31750000	2413764.25	0.9934560061
31800000	2413875.75	0.9988589287
31850000	2413772	1.001540661
31900000	2413879.5	0.99930197
31950000	2413860.5	1.024019003
32000000	2413840	1.015598893
32050000	2413857	1.008643866
32100000	2413688	1.024675488
32150000	2413752.5	1.00080955
32200000	2413768.5	1.003414631
32250000	2413738	1.010660291
32300000	2413781	1.009854674
32350000	2413689.25	1.007913232
32400000	2413796.75	0.9974049926
32450000	2413700.5	1.011417866
32500000	2413683.25	1.0250808
32550000	2413582.25	1.016991377
32600000	2413661	0.996466279
32650000	2413648.5	0.9997486472
32700000	2413637.5	1.001838803
32750000	2413649.25	1.003178954
32800000	2413676.5	1.004831433
